No.,Pos. [°2Th.],Iobs [cts],Icalc [cts],Iback [cts],CT [s],ESD,D spacings
1,10.0250,61.0000, , ,1.0000, ,8.81621
2,10.0750,34.0000, , ,1.0000, ,8.77256
3,10.1250,60.0000, , ,1.0000, ,8.72936
4,10.1750,59.0000, , ,1.0000, ,8.68657
5,10.2250,62.0000, , ,1.0000, ,8.64421
6,10.2750,56.0000, , ,1.0000, ,8.60225
7,10.3250,59.0000, , ,1.0000, ,8.56071
8,10.3750,48.0000, , ,1.0000, ,8.51956
9,10.4250,57.0000, , ,1.0000, ,8.47881
10,10.4750,42.0000, , ,1.0000, ,8.43846
11,10.5250,55.0000, , ,1.0000, ,8.39848
12,10.5750,54.0000, , ,1.0000, ,8.35888
13,10.6250,69.0000, , ,1.0000, ,8.31966
14,10.6750,49.0000, , ,1.0000, ,8.28080
15,10.7250,49.0000, , ,1.0000, ,8.24231
16,10.7750,57.0000, , ,1.0000, ,8.20417
17,10.8250,41.0000, , ,1.0000, ,8.16639
18,10.8750,50.0000, , ,1.0000, ,8.12896
19,10.9250,67.0000, , ,1.0000, ,8.09187
20,10.9750,54.0000, , ,1.0000, ,8.05511
21,11.0250,47.0000, , ,1.0000, ,8.01869
22,11.0750,50.0000, , ,1.0000, ,7.98260
23,11.1250,45.0000, , ,1.0000, ,7.94684
24,11.1750,57.0000, , ,1.0000, ,7.91139
25,11.2250,51.0000, , ,1.0000, ,7.87627
26,11.2750,53.0000, , ,1.0000, ,7.84145
27,11.3250,48.0000, , ,1.0000, ,7.80694
28,11.3750,43.0000, , ,1.0000, ,7.77274
29,11.4250,69.0000, , ,1.0000, ,7.73883
30,11.4750,44.0000, , ,1.0000, ,7.70523
31,11.5250,53.0000, , ,1.0000, ,7.67191
32,11.5750,47.0000, , ,1.0000, ,7.63888
33,11.6250,45.0000, , ,1.0000, ,7.60614
34,11.6750,45.0000, , ,1.0000, ,7.57368
35,11.7250,47.0000, , ,1.0000, ,7.54149
36,11.7750,63.0000, , ,1.0000, ,7.50958
37,11.8250,47.0000, , ,1.0000, ,7.47794
38,11.8750,48.0000, , ,1.0000, ,7.44656
39,11.9250,50.0000, , ,1.0000, ,7.41545
40,11.9750,40.0000, , ,1.0000, ,7.38460
41,12.0250,57.0000, , ,1.0000, ,7.35401
42,12.0750,49.0000, , ,1.0000, ,7.32367
43,12.1250,47.0000, , ,1.0000, ,7.29358
44,12.1750,49.0000, , ,1.0000, ,7.26374
45,12.2250,52.0000, , ,1.0000, ,7.23415
46,12.2750,44.0000, , ,1.0000, ,7.20479
47,12.3250,46.0000, , ,1.0000, ,7.17567
48,12.3750,48.0000, , ,1.0000, ,7.14679
49,12.4250,34.0000, , ,1.0000, ,7.11815
50,12.4750,42.0000, , ,1.0000, ,7.08973
51,12.5250,44.0000, , ,1.0000, ,7.06154
52,12.5750,43.0000, , ,1.0000, ,7.03357
53,12.6250,57.0000, , ,1.0000, ,7.00583
54,12.6750,47.0000, , ,1.0000, ,6.97830
55,12.7250,41.0000, , ,1.0000, ,6.95100
56,12.7750,28.0000, , ,1.0000, ,6.92390
57,12.8250,37.0000, , ,1.0000, ,6.89702
58,12.8750,40.0000, , ,1.0000, ,6.87035
59,12.9250,51.0000, , ,1.0000, ,6.84388
60,12.9750,46.0000, , ,1.0000, ,6.81762
61,13.0250,44.0000, , ,1.0000, ,6.79156
62,13.0750,43.0000, , ,1.0000, ,6.76570
63,13.1250,38.0000, , ,1.0000, ,6.74004
64,13.1750,43.0000, , ,1.0000, ,6.71458
65,13.2250,32.0000, , ,1.0000, ,6.68930
66,13.2750,52.0000, , ,1.0000, ,6.66422
67,13.3250,36.0000, , ,1.0000, ,6.63932
68,13.3750,26.0000, , ,1.0000, ,6.61462
69,13.4250,33.0000, , ,1.0000, ,6.59009
70,13.4750,38.0000, , ,1.0000, ,6.56575
71,13.5250,37.0000, , ,1.0000, ,6.54159
72,13.5750,37.0000, , ,1.0000, ,6.51761
73,13.6250,58.0000, , ,1.0000, ,6.49380
74,13.6750,52.0000, , ,1.0000, ,6.47017
75,13.7250,34.0000, , ,1.0000, ,6.44672
76,13.7750,52.0000, , ,1.0000, ,6.42343
77,13.8250,48.0000, , ,1.0000, ,6.40031
78,13.8750,30.0000, , ,1.0000, ,6.37736
79,13.9250,26.0000, , ,1.0000, ,6.35457
80,13.9750,34.0000, , ,1.0000, ,6.33195
81,14.0250,41.0000, , ,1.0000, ,6.30948
82,14.0750,36.0000, , ,1.0000, ,6.28718
83,14.1250,32.0000, , ,1.0000, ,6.26504
84,14.1750,44.0000, , ,1.0000, ,6.24305
85,14.2250,32.0000, , ,1.0000, ,6.22122
86,14.2750,32.0000, , ,1.0000, ,6.19954
87,14.3250,34.0000, , ,1.0000, ,6.17802
88,14.3750,33.0000, , ,1.0000, ,6.15664
89,14.4250,40.0000, , ,1.0000, ,6.13541
90,14.4750,39.0000, , ,1.0000, ,6.11433
91,14.5250,47.0000, , ,1.0000, ,6.09340
92,14.5750,33.0000, , ,1.0000, ,6.07260
93,14.6250,35.0000, , ,1.0000, ,6.05196
94,14.6750,44.0000, , ,1.0000, ,6.03145
95,14.7250,43.0000, , ,1.0000, ,6.01108
96,14.7750,37.0000, , ,1.0000, ,5.99085
97,14.8250,33.0000, , ,1.0000, ,5.97076
98,14.8750,42.0000, , ,1.0000, ,5.95080
99,14.9250,38.0000, , ,1.0000, ,5.93098
100,14.9750,33.0000, , ,1.0000, ,5.91129
101,15.0250,34.0000, , ,1.0000, ,5.89173
102,15.0750,48.0000, , ,1.0000, ,5.87230
103,15.1250,46.0000, , ,1.0000, ,5.85300
104,15.1750,34.0000, , ,1.0000, ,5.83382
105,15.2250,42.0000, , ,1.0000, ,5.81478
106,15.2750,36.0000, , ,1.0000, ,5.79586
107,15.3250,34.0000, , ,1.0000, ,5.77706
108,15.3750,39.0000, , ,1.0000, ,5.75838
109,15.4250,45.0000, , ,1.0000, ,5.73983
110,15.4750,33.0000, , ,1.0000, ,5.72140
111,15.5250,39.0000, , ,1.0000, ,5.70308
112,15.5750,70.0000, , ,1.0000, ,5.68489
113,15.6250,87.0000, , ,1.0000, ,5.66681
114,15.6750,90.0000, , ,1.0000, ,5.64884
115,15.7250,46.0000, , ,1.0000, ,5.63100
116,15.7750,41.0000, , ,1.0000, ,5.61326
117,15.8250,35.0000, , ,1.0000, ,5.59564
118,15.8750,18.0000, , ,1.0000, ,5.57813
119,15.9250,35.0000, , ,1.0000, ,5.56072
120,15.9750,38.0000, , ,1.0000, ,5.54343
121,16.0250,43.0000, , ,1.0000, ,5.52625
122,16.0750,30.0000, , ,1.0000, ,5.50917
123,16.1250,36.0000, , ,1.0000, ,5.49220
124,16.1750,28.0000, , ,1.0000, ,5.47534
125,16.2250,33.0000, , ,1.0000, ,5.45858
126,16.2750,29.0000, , ,1.0000, ,5.44192
127,16.3250,25.0000, , ,1.0000, ,5.42536
128,16.3750,23.0000, , ,1.0000, ,5.40891
129,16.4250,33.0000, , ,1.0000, ,5.39256
130,16.4750,37.0000, , ,1.0000, ,5.37630
131,16.5250,23.0000, , ,1.0000, ,5.36015
132,16.5750,39.0000, , ,1.0000, ,5.34409
133,16.6250,36.0000, , ,1.0000, ,5.32813
134,16.6750,28.0000, , ,1.0000, ,5.31227
135,16.7250,23.0000, , ,1.0000, ,5.29650
136,16.7750,22.0000, , ,1.0000, ,5.28082
137,16.8250,36.0000, , ,1.0000, ,5.26524
138,16.8750,23.0000, , ,1.0000, ,5.24975
139,16.9250,28.0000, , ,1.0000, ,5.23436
140,16.9750,33.0000, , ,1.0000, ,5.21905
141,17.0250,24.0000, , ,1.0000, ,5.20384
142,17.0750,33.0000, , ,1.0000, ,5.18871
143,17.1250,26.0000, , ,1.0000, ,5.17368
144,17.1750,33.0000, , ,1.0000, ,5.15873
145,17.2250,29.0000, , ,1.0000, ,5.14386
146,17.2750,21.0000, , ,1.0000, ,5.12909
147,17.3250,35.0000, , ,1.0000, ,5.11440
148,17.3750,29.0000, , ,1.0000, ,5.09979
149,17.4250,33.0000, , ,1.0000, ,5.08527
150,17.4750,22.0000, , ,1.0000, ,5.07083
151,17.5250,31.0000, , ,1.0000, ,5.05648
152,17.5750,32.0000, , ,1.0000, ,5.04221
153,17.6250,26.0000, , ,1.0000, ,5.02801
154,17.6750,40.0000, , ,1.0000, ,5.01390
155,17.7250,35.0000, , ,1.0000, ,4.99987
156,17.7750,35.0000, , ,1.0000, ,4.98592
157,17.8250,28.0000, , ,1.0000, ,4.97205
158,17.8750,33.0000, , ,1.0000, ,4.95825
159,17.9250,28.0000, , ,1.0000, ,4.94453
160,17.9750,29.0000, , ,1.0000, ,4.93089
161,18.0250,29.0000, , ,1.0000, ,4.91733
162,18.0750,37.0000, , ,1.0000, ,4.90384
163,18.1250,25.0000, , ,1.0000, ,4.89042
164,18.1750,29.0000, , ,1.0000, ,4.87708
165,18.2250,24.0000, , ,1.0000, ,4.86381
166,18.2750,20.0000, , ,1.0000, ,4.85062
167,18.3250,37.0000, , ,1.0000, ,4.83750
168,18.3750,31.0000, , ,1.0000, ,4.82445
169,18.4250,25.0000, , ,1.0000, ,4.81147
170,18.4750,33.0000, , ,1.0000, ,4.79856
171,18.5250,26.0000, , ,1.0000, ,4.78572
172,18.5750,24.0000, , ,1.0000, ,4.77295
173,18.6250,32.0000, , ,1.0000, ,4.76025
174,18.6750,23.0000, , ,1.0000, ,4.74761
175,18.7250,20.0000, , ,1.0000, ,4.73505
176,18.7750,32.0000, , ,1.0000, ,4.72255
177,18.8250,29.0000, , ,1.0000, ,4.71012
178,18.8750,27.0000, , ,1.0000, ,4.69776
179,18.9250,26.0000, , ,1.0000, ,4.68546
180,18.9750,29.0000, , ,1.0000, ,4.67322
181,19.0250,28.0000, , ,1.0000, ,4.66106
182,19.0750,26.0000, , ,1.0000, ,4.64895
183,19.1250,34.0000, , ,1.0000, ,4.63691
184,19.1750,22.0000, , ,1.0000, ,4.62493
185,19.2250,25.0000, , ,1.0000, ,4.61301
186,19.2750,26.0000, , ,1.0000, ,4.60116
187,19.3250,20.0000, , ,1.0000, ,4.58937
188,19.3750,19.0000, , ,1.0000, ,4.57764
189,19.4250,24.0000, , ,1.0000, ,4.56597
190,19.4750,25.0000, , ,1.0000, ,4.55436
191,19.5250,28.0000, , ,1.0000, ,4.54281
192,19.5750,30.0000, , ,1.0000, ,4.53132
193,19.6250,25.0000, , ,1.0000, ,4.51988
194,19.6750,29.0000, , ,1.0000, ,4.50851
195,19.7250,27.0000, , ,1.0000, ,4.49720
196,19.7750,26.0000, , ,1.0000, ,4.48594
197,19.8250,35.0000, , ,1.0000, ,4.47474
198,19.8750,20.0000, , ,1.0000, ,4.46359
199,19.9250,27.0000, , ,1.0000, ,4.45250
200,19.9750,26.0000, , ,1.0000, ,4.44147
201,20.0250,26.0000, , ,1.0000, ,4.43049
202,20.0750,29.0000, , ,1.0000, ,4.41957
203,20.1250,19.0000, , ,1.0000, ,4.40870
204,20.1750,21.0000, , ,1.0000, ,4.39789
205,20.2250,14.0000, , ,1.0000, ,4.38713
206,20.2750,18.0000, , ,1.0000, ,4.37642
207,20.3250,21.0000, , ,1.0000, ,4.36577
208,20.3750,25.0000, , ,1.0000, ,4.35517
209,20.4250,22.0000, , ,1.0000, ,4.34462
210,20.4750,14.0000, , ,1.0000, ,4.33412
211,20.5250,37.0000, , ,1.0000, ,4.32368
212,20.5750,26.0000, , ,1.0000, ,4.31328
213,20.6250,19.0000, , ,1.0000, ,4.30294
214,20.6750,18.0000, , ,1.0000, ,4.29265
215,20.7250,27.0000, , ,1.0000, ,4.28240
216,20.7750,20.0000, , ,1.0000, ,4.27221
217,20.8250,27.0000, , ,1.0000, ,4.26207
218,20.8750,21.0000, , ,1.0000, ,4.25197
219,20.9250,23.0000, , ,1.0000, ,4.24192
220,20.9750,25.0000, , ,1.0000, ,4.23192
221,21.0250,15.0000, , ,1.0000, ,4.22197
222,21.0750,20.0000, , ,1.0000, ,4.21207
223,21.1250,10.0000, , ,1.0000, ,4.20221
224,21.1750,22.0000, , ,1.0000, ,4.19240
225,21.2250,26.0000, , ,1.0000, ,4.18264
226,21.2750,28.0000, , ,1.0000, ,4.17292
227,21.3250,15.0000, , ,1.0000, ,4.16325
228,21.3750,9.0000, , ,1.0000, ,4.15362
229,21.4250,22.0000, , ,1.0000, ,4.14404
230,21.4750,19.0000, , ,1.0000, ,4.13451
231,21.5250,22.0000, , ,1.0000, ,4.12502
232,21.5750,19.0000, , ,1.0000, ,4.11557
233,21.6250,27.0000, , ,1.0000, ,4.10617
234,21.6750,19.0000, , ,1.0000, ,4.09681
235,21.7250,24.0000, , ,1.0000, ,4.08749
236,21.7750,19.0000, , ,1.0000, ,4.07822
237,21.8250,23.0000, , ,1.0000, ,4.06899
238,21.8750,14.0000, , ,1.0000, ,4.05980
239,21.9250,16.0000, , ,1.0000, ,4.05066
240,21.9750,15.0000, , ,1.0000, ,4.04155
241,22.0250,23.0000, , ,1.0000, ,4.03249
242,22.0750,18.0000, , ,1.0000, ,4.02347
243,22.1250,17.0000, , ,1.0000, ,4.01449
244,22.1750,19.0000, , ,1.0000, ,4.00555
245,22.2250,20.0000, , ,1.0000, ,3.99665
246,22.2750,13.0000, , ,1.0000, ,3.98779
247,22.3250,14.0000, , ,1.0000, ,3.97898
248,22.3750,22.0000, , ,1.0000, ,3.97020
249,22.4250,22.0000, , ,1.0000, ,3.96146
250,22.4750,18.0000, , ,1.0000, ,3.95276
251,22.5250,18.0000, , ,1.0000, ,3.94410
252,22.5750,16.0000, , ,1.0000, ,3.93547
253,22.6250,19.0000, , ,1.0000, ,3.92689
254,22.6750,12.0000, , ,1.0000, ,3.91834
255,22.7250,22.0000, , ,1.0000, ,3.90984
256,22.7750,23.0000, , ,1.0000, ,3.90136
257,22.8250,16.0000, , ,1.0000, ,3.89293
258,22.8750,20.0000, , ,1.0000, ,3.88454
259,22.9250,28.0000, , ,1.0000, ,3.87618
260,22.9750,18.0000, , ,1.0000, ,3.86785
261,23.0250,12.0000, , ,1.0000, ,3.85957
262,23.0750,17.0000, , ,1.0000, ,3.85132
263,23.1250,14.0000, , ,1.0000, ,3.84310
264,23.1750,16.0000, , ,1.0000, ,3.83492
265,23.2250,14.0000, , ,1.0000, ,3.82678
266,23.2750,12.0000, , ,1.0000, ,3.81867
267,23.3250,10.0000, , ,1.0000, ,3.81060
268,23.3750,17.0000, , ,1.0000, ,3.80256
269,23.4250,17.0000, , ,1.0000, ,3.79456
270,23.4750,17.0000, , ,1.0000, ,3.78659
271,23.5250,20.0000, , ,1.0000, ,3.77866
272,23.5750,14.0000, , ,1.0000, ,3.77075
273,23.6250,10.0000, , ,1.0000, ,3.76289
274,23.6750,13.0000, , ,1.0000, ,3.75505
275,23.7250,11.0000, , ,1.0000, ,3.74725
276,23.7750,23.0000, , ,1.0000, ,3.73948
277,23.8250,11.0000, , ,1.0000, ,3.73175
278,23.8750,17.0000, , ,1.0000, ,3.72405
279,23.9250,11.0000, , ,1.0000, ,3.71638
280,23.9750,17.0000, , ,1.0000, ,3.70874
281,24.0250,17.0000, , ,1.0000, ,3.70113
282,24.0750,17.0000, , ,1.0000, ,3.69356
283,24.1250,16.0000, , ,1.0000, ,3.68602
284,24.1750,19.0000, , ,1.0000, ,3.67851
285,24.2250,9.0000, , ,1.0000, ,3.67103
286,24.2750,13.0000, , ,1.0000, ,3.66358
287,24.3250,17.0000, , ,1.0000, ,3.65616
288,24.3750,16.0000, , ,1.0000, ,3.64878
289,24.4250,23.0000, , ,1.0000, ,3.64142
290,24.4750,21.0000, , ,1.0000, ,3.63410
291,24.5250,17.0000, , ,1.0000, ,3.62680
292,24.5750,15.0000, , ,1.0000, ,3.61953
293,24.6250,18.0000, , ,1.0000, ,3.61230
294,24.6750,21.0000, , ,1.0000, ,3.60509
295,24.7250,18.0000, , ,1.0000, ,3.59791
296,24.7750,19.0000, , ,1.0000, ,3.59077
297,24.8250,18.0000, , ,1.0000, ,3.58365
298,24.8750,19.0000, , ,1.0000, ,3.57656
299,24.9250,25.0000, , ,1.0000, ,3.56949
300,24.9750,28.0000, , ,1.0000, ,3.56246
301,25.0250,25.0000, , ,1.0000, ,3.55546
302,25.0750,34.0000, , ,1.0000, ,3.54848
303,25.1250,24.0000, , ,1.0000, ,3.54153
304,25.1750,28.0000, , ,1.0000, ,3.53461
305,25.2250,47.0000, , ,1.0000, ,3.52772
306,25.2750,51.0000, , ,1.0000, ,3.52085
307,25.3250,64.0000, , ,1.0000, ,3.51401
308,25.3750,96.0000, , ,1.0000, ,3.50720
309,25.4250,115.0000, , ,1.0000, ,3.50042
310,25.4750,191.0000, , ,1.0000, ,3.49366
311,25.5250,256.0000, , ,1.0000, ,3.48693
312,25.5750,398.0000, , ,1.0000, ,3.48023
313,25.6250,428.0000, , ,1.0000, ,3.47355
314,25.6750,318.0000, , ,1.0000, ,3.46690
315,25.7250,202.0000, , ,1.0000, ,3.46027
316,25.7750,97.0000, , ,1.0000, ,3.45368
317,25.8250,106.0000, , ,1.0000, ,3.44710
318,25.8750,47.0000, , ,1.0000, ,3.44055
319,25.9250,39.0000, , ,1.0000, ,3.43403
320,25.9750,41.0000, , ,1.0000, ,3.42754
321,26.0250,29.0000, , ,1.0000, ,3.42106
322,26.0750,28.0000, , ,1.0000, ,3.41462
323,26.1250,18.0000, , ,1.0000, ,3.40819
324,26.1750,24.0000, , ,1.0000, ,3.40180
325,26.2250,21.0000, , ,1.0000, ,3.39543
326,26.2750,31.0000, , ,1.0000, ,3.38908
327,26.3250,13.0000, , ,1.0000, ,3.38275
328,26.3750,24.0000, , ,1.0000, ,3.37645
329,26.4250,19.0000, , ,1.0000, ,3.37018
330,26.4750,10.0000, , ,1.0000, ,3.36393
331,26.5250,21.0000, , ,1.0000, ,3.35770
332,26.5750,14.0000, , ,1.0000, ,3.35150
333,26.6250,15.0000, , ,1.0000, ,3.34531
334,26.6750,11.0000, , ,1.0000, ,3.33916
335,26.7250,12.0000, , ,1.0000, ,3.33302
336,26.7750,13.0000, , ,1.0000, ,3.32691
337,26.8250,14.0000, , ,1.0000, ,3.32083
338,26.8750,16.0000, , ,1.0000, ,3.31476
339,26.9250,14.0000, , ,1.0000, ,3.30872
340,26.9750,16.0000, , ,1.0000, ,3.30270
341,27.0250,12.0000, , ,1.0000, ,3.29670
342,27.0750,15.0000, , ,1.0000, ,3.29073
343,27.1250,12.0000, , ,1.0000, ,3.28477
344,27.1750,11.0000, , ,1.0000, ,3.27884
345,27.2250,17.0000, , ,1.0000, ,3.27294
346,27.2750,8.0000, , ,1.0000, ,3.26705
347,27.3250,13.0000, , ,1.0000, ,3.26118
348,27.3750,16.0000, , ,1.0000, ,3.25534
349,27.4250,17.0000, , ,1.0000, ,3.24952
350,27.4750,13.0000, , ,1.0000, ,3.24372
351,27.5250,12.0000, , ,1.0000, ,3.23794
352,27.5750,12.0000, , ,1.0000, ,3.23218
353,27.6250,13.0000, , ,1.0000, ,3.22645
354,27.6750,8.0000, , ,1.0000, ,3.22073
355,27.7250,20.0000, , ,1.0000, ,3.21504
356,27.7750,7.0000, , ,1.0000, ,3.20936
357,27.8250,10.0000, , ,1.0000, ,3.20371
358,27.8750,10.0000, , ,1.0000, ,3.19808
359,27.9250,8.0000, , ,1.0000, ,3.19246
360,27.9750,13.0000, , ,1.0000, ,3.18687
361,28.0250,18.0000, , ,1.0000, ,3.18130
362,28.0750,12.0000, , ,1.0000, ,3.17575
363,28.1250,13.0000, , ,1.0000, ,3.17021
364,28.1750,13.0000, , ,1.0000, ,3.16470
365,28.2250,9.0000, , ,1.0000, ,3.15921
366,28.2750,9.0000, , ,1.0000, ,3.15374
367,28.3250,15.0000, , ,1.0000, ,3.14828
368,28.3750,9.0000, , ,1.0000, ,3.14285
369,28.4250,7.0000, , ,1.0000, ,3.13743
370,28.4750,13.0000, , ,1.0000, ,3.13204
371,28.5250,9.0000, , ,1.0000, ,3.12666
372,28.5750,12.0000, , ,1.0000, ,3.12130
373,28.6250,19.0000, , ,1.0000, ,3.11597
374,28.6750,20.0000, , ,1.0000, ,3.11065
375,28.7250,12.0000, , ,1.0000, ,3.10534
376,28.7750,9.0000, , ,1.0000, ,3.10006
377,28.8250,15.0000, , ,1.0000, ,3.09480
378,28.8750,11.0000, , ,1.0000, ,3.08955
379,28.9250,14.0000, , ,1.0000, ,3.08433
380,28.9750,16.0000, , ,1.0000, ,3.07912
381,29.0250,16.0000, , ,1.0000, ,3.07393
382,29.0750,20.0000, , ,1.0000, ,3.06875
383,29.1250,13.0000, , ,1.0000, ,3.06360
384,29.1750,18.0000, , ,1.0000, ,3.05846
385,29.2250,11.0000, , ,1.0000, ,3.05334
386,29.2750,17.0000, , ,1.0000, ,3.04824
387,29.3250,16.0000, , ,1.0000, ,3.04316
388,29.3750,9.0000, , ,1.0000, ,3.03809
389,29.4250,7.0000, , ,1.0000, ,3.03304
390,29.4750,12.0000, , ,1.0000, ,3.02801
391,29.5250,10.0000, , ,1.0000, ,3.02300
392,29.5750,15.0000, , ,1.0000, ,3.01800
393,29.6250,19.0000, , ,1.0000, ,3.01302
394,29.6750,3.0000, , ,1.0000, ,3.00806
395,29.7250,10.0000, , ,1.0000, ,3.00311
396,29.7750,13.0000, , ,1.0000, ,2.99818
397,29.8250,13.0000, , ,1.0000, ,2.99327
398,29.8750,15.0000, , ,1.0000, ,2.98837
399,29.9250,15.0000, , ,1.0000, ,2.98350
400,29.9750,11.0000, , ,1.0000, ,2.97863
401,30.0250,12.0000, , ,1.0000, ,2.97379
402,30.0750,16.0000, , ,1.0000, ,2.96896
403,30.1250,14.0000, , ,1.0000, ,2.96414
404,30.1750,17.0000, , ,1.0000, ,2.95934
405,30.2250,13.0000, , ,1.0000, ,2.95456
406,30.2750,11.0000, , ,1.0000, ,2.94980
407,30.3250,13.0000, , ,1.0000, ,2.94505
408,30.3750,17.0000, , ,1.0000, ,2.94031
409,30.4250,13.0000, , ,1.0000, ,2.93559
410,30.4750,15.0000, , ,1.0000, ,2.93089
411,30.5250,12.0000, , ,1.0000, ,2.92620
412,30.5750,16.0000, , ,1.0000, ,2.92153
413,30.6250,15.0000, , ,1.0000, ,2.91688
414,30.6750,12.0000, , ,1.0000, ,2.91224
415,30.7250,16.0000, , ,1.0000, ,2.90761
416,30.7750,21.0000, , ,1.0000, ,2.90300
417,30.8250,16.0000, , ,1.0000, ,2.89841
418,30.8750,17.0000, , ,1.0000, ,2.89383
419,30.9250,38.0000, , ,1.0000, ,2.88926
420,30.9750,21.0000, , ,1.0000, ,2.88471
421,31.0250,12.0000, , ,1.0000, ,2.88018
422,31.0750,26.0000, , ,1.0000, ,2.87566
423,31.1250,31.0000, , ,1.0000, ,2.87115
424,31.1750,26.0000, , ,1.0000, ,2.86666
425,31.2250,43.0000, , ,1.0000, ,2.86218
426,31.2750,31.0000, , ,1.0000, ,2.85772
427,31.3250,52.0000, , ,1.0000, ,2.85327
428,31.3750,52.0000, , ,1.0000, ,2.84884
429,31.4250,53.0000, , ,1.0000, ,2.84442
430,31.4750,65.0000, , ,1.0000, ,2.84002
431,31.5250,62.0000, , ,1.0000, ,2.83563
432,31.5750,49.0000, , ,1.0000, ,2.83125
433,31.6250,60.0000, , ,1.0000, ,2.82689
434,31.6750,49.0000, , ,1.0000, ,2.82254
435,31.7250,43.0000, , ,1.0000, ,2.81820
436,31.7750,37.0000, , ,1.0000, ,2.81388
437,31.8250,30.0000, , ,1.0000, ,2.80958
438,31.8750,22.0000, , ,1.0000, ,2.80528
439,31.9250,19.0000, , ,1.0000, ,2.80100
440,31.9750,41.0000, , ,1.0000, ,2.79674
441,32.0250,40.0000, , ,1.0000, ,2.79249
442,32.0750,23.0000, , ,1.0000, ,2.78825
443,32.1250,29.0000, , ,1.0000, ,2.78402
444,32.1750,26.0000, , ,1.0000, ,2.77981
445,32.2250,15.0000, , ,1.0000, ,2.77561
446,32.2750,17.0000, , ,1.0000, ,2.77142
447,32.3250,23.0000, , ,1.0000, ,2.76725
448,32.3750,22.0000, , ,1.0000, ,2.76309
449,32.4250,27.0000, , ,1.0000, ,2.75894
450,32.4750,20.0000, , ,1.0000, ,2.75481
451,32.5250,17.0000, , ,1.0000, ,2.75069
452,32.5750,13.0000, , ,1.0000, ,2.74658
453,32.6250,20.0000, , ,1.0000, ,2.74249
454,32.6750,19.0000, , ,1.0000, ,2.73840
455,32.7250,19.0000, , ,1.0000, ,2.73433
456,32.7750,16.0000, , ,1.0000, ,2.73028
457,32.8250,20.0000, , ,1.0000, ,2.72623
458,32.8750,28.0000, , ,1.0000, ,2.72220
459,32.9250,19.0000, , ,1.0000, ,2.71818
460,32.9750,22.0000, , ,1.0000, ,2.71417
461,33.0250,18.0000, , ,1.0000, ,2.71018
462,33.0750,26.0000, , ,1.0000, ,2.70620
463,33.1250,34.0000, , ,1.0000, ,2.70222
464,33.1750,31.0000, , ,1.0000, ,2.69827
465,33.2250,47.0000, , ,1.0000, ,2.69432
466,33.2750,59.0000, , ,1.0000, ,2.69039
467,33.3250,37.0000, , ,1.0000, ,2.68646
468,33.3750,34.0000, , ,1.0000, ,2.68255
469,33.4250,23.0000, , ,1.0000, ,2.67865
470,33.4750,27.0000, , ,1.0000, ,2.67477
471,33.5250,17.0000, , ,1.0000, ,2.67089
472,33.5750,20.0000, , ,1.0000, ,2.66703
473,33.6250,18.0000, , ,1.0000, ,2.66318
474,33.6750,20.0000, , ,1.0000, ,2.65934
475,33.7250,14.0000, , ,1.0000, ,2.65551
476,33.7750,18.0000, , ,1.0000, ,2.65169
477,33.8250,28.0000, , ,1.0000, ,2.64789
478,33.8750,18.0000, , ,1.0000, ,2.64409
479,33.9250,17.0000, , ,1.0000, ,2.64031
480,33.9750,23.0000, , ,1.0000, ,2.63654
481,34.0250,21.0000, , ,1.0000, ,2.63278
482,34.0750,24.0000, , ,1.0000, ,2.62903
483,34.1250,20.0000, , ,1.0000, ,2.62529
484,34.1750,26.0000, , ,1.0000, ,2.62156
485,34.2250,23.0000, , ,1.0000, ,2.61785
486,34.2750,24.0000, , ,1.0000, ,2.61414
487,34.3250,25.0000, , ,1.0000, ,2.61045
488,34.3750,20.0000, , ,1.0000, ,2.60677
489,34.4250,32.0000, , ,1.0000, ,2.60310
490,34.4750,30.0000, , ,1.0000, ,2.59944
491,34.5250,27.0000, , ,1.0000, ,2.59579
492,34.5750,33.0000, , ,1.0000, ,2.59215
493,34.6250,41.0000, , ,1.0000, ,2.58852
494,34.6750,46.0000, , ,1.0000, ,2.58490
495,34.7250,43.0000, , ,1.0000, ,2.58129
496,34.7750,54.0000, , ,1.0000, ,2.57769
497,34.8250,70.0000, , ,1.0000, ,2.57411
498,34.8750,73.0000, , ,1.0000, ,2.57053
499,34.9250,111.0000, , ,1.0000, ,2.56697
500,34.9750,138.0000, , ,1.0000, ,2.56341
501,35.0250,194.0000, , ,1.0000, ,2.55987
502,35.0750,331.0000, , ,1.0000, ,2.55633
503,35.1250,495.0000, , ,1.0000, ,2.55281
504,35.1750,705.0000, , ,1.0000, ,2.54929
505,35.2250,554.0000, , ,1.0000, ,2.54579
506,35.2750,399.0000, , ,1.0000, ,2.54229
507,35.3250,267.0000, , ,1.0000, ,2.53881
508,35.3750,174.0000, , ,1.0000, ,2.53534
509,35.4250,147.0000, , ,1.0000, ,2.53187
510,35.4750,133.0000, , ,1.0000, ,2.52842
511,35.5250,105.0000, , ,1.0000, ,2.52497
512,35.5750,117.0000, , ,1.0000, ,2.52154
513,35.6250,95.0000, , ,1.0000, ,2.51812
514,35.6750,87.0000, , ,1.0000, ,2.51470
515,35.7250,93.0000, , ,1.0000, ,2.51130
516,35.7750,96.0000, , ,1.0000, ,2.50790
517,35.8250,89.0000, , ,1.0000, ,2.50451
518,35.8750,83.0000, , ,1.0000, ,2.50114
519,35.9250,56.0000, , ,1.0000, ,2.49777
520,35.9750,64.0000, , ,1.0000, ,2.49441
521,36.0250,47.0000, , ,1.0000, ,2.49107
522,36.0750,37.0000, , ,1.0000, ,2.48773
523,36.1250,40.0000, , ,1.0000, ,2.48440
524,36.1750,34.0000, , ,1.0000, ,2.48108
525,36.2250,30.0000, , ,1.0000, ,2.47777
526,36.2750,20.0000, , ,1.0000, ,2.47447
527,36.3250,26.0000, , ,1.0000, ,2.47118
528,36.3750,20.0000, , ,1.0000, ,2.46790
529,36.4250,23.0000, , ,1.0000, ,2.46462
530,36.4750,27.0000, , ,1.0000, ,2.46136
531,36.5250,28.0000, , ,1.0000, ,2.45811
532,36.5750,22.0000, , ,1.0000, ,2.45486
533,36.6250,43.0000, , ,1.0000, ,2.45162
534,36.6750,22.0000, , ,1.0000, ,2.44840
535,36.7250,24.0000, , ,1.0000, ,2.44518
536,36.7750,26.0000, , ,1.0000, ,2.44197
537,36.8250,27.0000, , ,1.0000, ,2.43877
538,36.8750,19.0000, , ,1.0000, ,2.43557
539,36.9250,24.0000, , ,1.0000, ,2.43239
540,36.9750,12.0000, , ,1.0000, ,2.42922
541,37.0250,17.0000, , ,1.0000, ,2.42605
542,37.0750,18.0000, , ,1.0000, ,2.42289
543,37.1250,31.0000, , ,1.0000, ,2.41974
544,37.1750,21.0000, , ,1.0000, ,2.41661
545,37.2250,24.0000, , ,1.0000, ,2.41347
546,37.2750,26.0000, , ,1.0000, ,2.41035
547,37.3250,31.0000, , ,1.0000, ,2.40724
548,37.3750,37.0000, , ,1.0000, ,2.40413
549,37.4250,48.0000, , ,1.0000, ,2.40103
550,37.4750,46.0000, , ,1.0000, ,2.39795
551,37.5250,48.0000, , ,1.0000, ,2.39487
552,37.5750,77.0000, , ,1.0000, ,2.39179
553,37.6250,85.0000, , ,1.0000, ,2.38873
554,37.6750,100.0000, , ,1.0000, ,2.38567
555,37.7250,160.0000, , ,1.0000, ,2.38263
556,37.7750,254.0000, , ,1.0000, ,2.37959
557,37.8250,277.0000, , ,1.0000, ,2.37656
558,37.8750,194.0000, , ,1.0000, ,2.37354
559,37.9250,150.0000, , ,1.0000, ,2.37052
560,37.9750,95.0000, , ,1.0000, ,2.36751
561,38.0250,70.0000, , ,1.0000, ,2.36452
562,38.0750,65.0000, , ,1.0000, ,2.36153
563,38.1250,53.0000, , ,1.0000, ,2.35854
564,38.1750,36.0000, , ,1.0000, ,2.35557
565,38.2250,22.0000, , ,1.0000, ,2.35260
566,38.2750,20.0000, , ,1.0000, ,2.34965
567,38.3250,18.0000, , ,1.0000, ,2.34669
568,38.3750,7.0000, , ,1.0000, ,2.34375
569,38.4250,15.0000, , ,1.0000, ,2.34082
570,38.4750,19.0000, , ,1.0000, ,2.33789
571,38.5250,14.0000, , ,1.0000, ,2.33497
572,38.5750,22.0000, , ,1.0000, ,2.33206
573,38.6250,13.0000, , ,1.0000, ,2.32916
574,38.6750,12.0000, , ,1.0000, ,2.32626
575,38.7250,9.0000, , ,1.0000, ,2.32337
576,38.7750,11.0000, , ,1.0000, ,2.32049
577,38.8250,16.0000, , ,1.0000, ,2.31762
578,38.8750,9.0000, , ,1.0000, ,2.31475
579,38.9250,9.0000, , ,1.0000, ,2.31189
580,38.9750,14.0000, , ,1.0000, ,2.30904
581,39.0250,17.0000, , ,1.0000, ,2.30620
582,39.0750,18.0000, , ,1.0000, ,2.30336
583,39.1250,9.0000, , ,1.0000, ,2.30053
584,39.1750,13.0000, , ,1.0000, ,2.29771
585,39.2250,6.0000, , ,1.0000, ,2.29490
586,39.2750,16.0000, , ,1.0000, ,2.29209
587,39.3250,11.0000, , ,1.0000, ,2.28929
588,39.3750,16.0000, , ,1.0000, ,2.28650
589,39.4250,10.0000, , ,1.0000, ,2.28372
590,39.4750,9.0000, , ,1.0000, ,2.28094
591,39.5250,9.0000, , ,1.0000, ,2.27817
592,39.5750,6.0000, , ,1.0000, ,2.27541
593,39.6250,7.0000, , ,1.0000, ,2.27265
594,39.6750,12.0000, , ,1.0000, ,2.26990
595,39.7250,14.0000, , ,1.0000, ,2.26716
596,39.7750,16.0000, , ,1.0000, ,2.26442
597,39.8250,15.0000, , ,1.0000, ,2.26170
598,39.8750,11.0000, , ,1.0000, ,2.25898
599,39.9250,11.0000, , ,1.0000, ,2.25626
600,39.9750,7.0000, , ,1.0000, ,2.25355
601,40.0250,21.0000, , ,1.0000, ,2.25085
602,40.0750,10.0000, , ,1.0000, ,2.24816
603,40.1250,16.0000, , ,1.0000, ,2.24548
604,40.1750,12.0000, , ,1.0000, ,2.24280
605,40.2250,11.0000, , ,1.0000, ,2.24012
606,40.2750,10.0000, , ,1.0000, ,2.23746
607,40.3250,15.0000, , ,1.0000, ,2.23480
608,40.3750,12.0000, , ,1.0000, ,2.23215
609,40.4250,13.0000, , ,1.0000, ,2.22950
610,40.4750,8.0000, , ,1.0000, ,2.22686
611,40.5250,16.0000, , ,1.0000, ,2.22423
612,40.5750,11.0000, , ,1.0000, ,2.22160
613,40.6250,15.0000, , ,1.0000, ,2.21898
614,40.6750,6.0000, , ,1.0000, ,2.21637
615,40.7250,11.0000, , ,1.0000, ,2.21377
616,40.7750,14.0000, , ,1.0000, ,2.21117
617,40.8250,10.0000, , ,1.0000, ,2.20857
618,40.8750,10.0000, , ,1.0000, ,2.20599
619,40.9250,10.0000, , ,1.0000, ,2.20341
620,40.9750,6.0000, , ,1.0000, ,2.20084
621,41.0250,10.0000, , ,1.0000, ,2.19827
622,41.0750,16.0000, , ,1.0000, ,2.19571
623,41.1250,11.0000, , ,1.0000, ,2.19315
624,41.1750,12.0000, , ,1.0000, ,2.19061
625,41.2250,6.0000, , ,1.0000, ,2.18806
626,41.2750,11.0000, , ,1.0000, ,2.18553
627,41.3250,8.0000, , ,1.0000, ,2.18300
628,41.3750,14.0000, , ,1.0000, ,2.18048
629,41.4250,8.0000, , ,1.0000, ,2.17796
630,41.4750,7.0000, , ,1.0000, ,2.17545
631,41.5250,10.0000, , ,1.0000, ,2.17295
632,41.5750,15.0000, , ,1.0000, ,2.17045
633,41.6250,13.0000, , ,1.0000, ,2.16796
634,41.6750,12.0000, , ,1.0000, ,2.16547
635,41.7250,24.0000, , ,1.0000, ,2.16299
636,41.7750,18.0000, , ,1.0000, ,2.16052
637,41.8250,11.0000, , ,1.0000, ,2.15805
638,41.8750,8.0000, , ,1.0000, ,2.15559
639,41.9250,13.0000, , ,1.0000, ,2.15314
640,41.9750,23.0000, , ,1.0000, ,2.15069
641,42.0250,13.0000, , ,1.0000, ,2.14824
642,42.0750,20.0000, , ,1.0000, ,2.14581
643,42.1250,21.0000, , ,1.0000, ,2.14337
644,42.1750,17.0000, , ,1.0000, ,2.14095
645,42.2250,15.0000, , ,1.0000, ,2.13853
646,42.2750,28.0000, , ,1.0000, ,2.13612
647,42.3250,15.0000, , ,1.0000, ,2.13371
648,42.3750,24.0000, , ,1.0000, ,2.13131
649,42.4250,27.0000, , ,1.0000, ,2.12891
650,42.4750,17.0000, , ,1.0000, ,2.12652
651,42.5250,24.0000, , ,1.0000, ,2.12413
652,42.5750,18.0000, , ,1.0000, ,2.12176
653,42.6250,19.0000, , ,1.0000, ,2.11938
654,42.6750,15.0000, , ,1.0000, ,2.11701
655,42.7250,24.0000, , ,1.0000, ,2.11465
656,42.7750,24.0000, , ,1.0000, ,2.11230
657,42.8250,41.0000, , ,1.0000, ,2.10995
658,42.8750,53.0000, , ,1.0000, ,2.10760
659,42.9250,61.0000, , ,1.0000, ,2.10526
660,42.9750,55.0000, , ,1.0000, ,2.10293
661,43.0250,76.0000, , ,1.0000, ,2.10060
662,43.0750,71.0000, , ,1.0000, ,2.09828
663,43.1250,102.0000, , ,1.0000, ,2.09596
664,43.1750,192.0000, , ,1.0000, ,2.09365
665,43.2250,231.0000, , ,1.0000, ,2.09134
666,43.2750,356.0000, , ,1.0000, ,2.08904
667,43.3250,458.0000, , ,1.0000, ,2.08675
668,43.3750,615.0000, , ,1.0000, ,2.08446
669,43.4250,552.0000, , ,1.0000, ,2.08217
670,43.4750,439.0000, , ,1.0000, ,2.07989
671,43.5250,356.0000, , ,1.0000, ,2.07762
672,43.5750,195.0000, , ,1.0000, ,2.07535
673,43.6250,154.0000, , ,1.0000, ,2.07309
674,43.6750,114.0000, , ,1.0000, ,2.07083
675,43.7250,62.0000, , ,1.0000, ,2.06858
676,43.7750,61.0000, , ,1.0000, ,2.06633
677,43.8250,45.0000, , ,1.0000, ,2.06409
678,43.8750,44.0000, , ,1.0000, ,2.06186
679,43.9250,37.0000, , ,1.0000, ,2.05962
680,43.9750,25.0000, , ,1.0000, ,2.05740
681,44.0250,35.0000, , ,1.0000, ,2.05518
682,44.0750,33.0000, , ,1.0000, ,2.05296
683,44.1250,25.0000, , ,1.0000, ,2.05075
684,44.1750,23.0000, , ,1.0000, ,2.04855
685,44.2250,18.0000, , ,1.0000, ,2.04635
686,44.2750,21.0000, , ,1.0000, ,2.04415
687,44.3250,19.0000, , ,1.0000, ,2.04196
688,44.3750,23.0000, , ,1.0000, ,2.03978
689,44.4250,22.0000, , ,1.0000, ,2.03760
690,44.4750,29.0000, , ,1.0000, ,2.03542
691,44.5250,21.0000, , ,1.0000, ,2.03325
692,44.5750,10.0000, , ,1.0000, ,2.03109
693,44.6250,14.0000, , ,1.0000, ,2.02893
694,44.6750,13.0000, , ,1.0000, ,2.02677
695,44.7250,14.0000, , ,1.0000, ,2.02462
696,44.7750,19.0000, , ,1.0000, ,2.02248
697,44.8250,14.0000, , ,1.0000, ,2.02034
698,44.8750,10.0000, , ,1.0000, ,2.01820
699,44.9250,10.0000, , ,1.0000, ,2.01607
700,44.9750,5.0000, , ,1.0000, ,2.01395
701,45.0250,10.0000, , ,1.0000, ,2.01183
702,45.0750,7.0000, , ,1.0000, ,2.00971
703,45.1250,15.0000, , ,1.0000, ,2.00760
704,45.1750,3.0000, , ,1.0000, ,2.00550
705,45.2250,14.0000, , ,1.0000, ,2.00340
706,45.2750,12.0000, , ,1.0000, ,2.00130
707,45.3250,8.0000, , ,1.0000, ,1.99921
708,45.3750,14.0000, , ,1.0000, ,1.99712
709,45.4250,7.0000, , ,1.0000, ,1.99504
710,45.4750,6.0000, , ,1.0000, ,1.99296
711,45.5250,6.0000, , ,1.0000, ,1.99089
712,45.5750,11.0000, , ,1.0000, ,1.98882
713,45.6250,5.0000, , ,1.0000, ,1.98676
714,45.6750,11.0000, , ,1.0000, ,1.98470
715,45.7250,14.0000, , ,1.0000, ,1.98264
716,45.7750,8.0000, , ,1.0000, ,1.98060
717,45.8250,11.0000, , ,1.0000, ,1.97855
718,45.8750,8.0000, , ,1.0000, ,1.97651
719,45.9250,7.0000, , ,1.0000, ,1.97447
720,45.9750,9.0000, , ,1.0000, ,1.97244
721,46.0250,12.0000, , ,1.0000, ,1.97042
722,46.0750,18.0000, , ,1.0000, ,1.96840
723,46.1250,11.0000, , ,1.0000, ,1.96638
724,46.1750,21.0000, , ,1.0000, ,1.96436
725,46.2250,18.0000, , ,1.0000, ,1.96236
726,46.2750,19.0000, , ,1.0000, ,1.96035
727,46.3250,18.0000, , ,1.0000, ,1.95835
728,46.3750,21.0000, , ,1.0000, ,1.95636
729,46.4250,10.0000, , ,1.0000, ,1.95437
730,46.4750,15.0000, , ,1.0000, ,1.95238
731,46.5250,16.0000, , ,1.0000, ,1.95040
732,46.5750,13.0000, , ,1.0000, ,1.94842
733,46.6250,15.0000, , ,1.0000, ,1.94645
734,46.6750,19.0000, , ,1.0000, ,1.94448
735,46.7250,10.0000, , ,1.0000, ,1.94252
736,46.7750,17.0000, , ,1.0000, ,1.94056
737,46.8250,16.0000, , ,1.0000, ,1.93860
738,46.8750,18.0000, , ,1.0000, ,1.93665
739,46.9250,20.0000, , ,1.0000, ,1.93470
740,46.9750,22.0000, , ,1.0000, ,1.93276
741,47.0250,16.0000, , ,1.0000, ,1.93082
742,47.0750,16.0000, , ,1.0000, ,1.92889
743,47.1250,26.0000, , ,1.0000, ,1.92696
744,47.1750,14.0000, , ,1.0000, ,1.92503
745,47.2250,15.0000, , ,1.0000, ,1.92311
746,47.2750,19.0000, , ,1.0000, ,1.92119
747,47.3250,21.0000, , ,1.0000, ,1.91928
748,47.3750,17.0000, , ,1.0000, ,1.91737
749,47.4250,15.0000, , ,1.0000, ,1.91546
750,47.4750,27.0000, , ,1.0000, ,1.91356
751,47.5250,20.0000, , ,1.0000, ,1.91167
752,47.5750,21.0000, , ,1.0000, ,1.90977
753,47.6250,32.0000, , ,1.0000, ,1.90789
754,47.6750,23.0000, , ,1.0000, ,1.90600
755,47.7250,25.0000, , ,1.0000, ,1.90412
756,47.7750,34.0000, , ,1.0000, ,1.90224
757,47.8250,42.0000, , ,1.0000, ,1.90037
758,47.8750,33.0000, , ,1.0000, ,1.89850
759,47.9250,40.0000, , ,1.0000, ,1.89664
760,47.9750,48.0000, , ,1.0000, ,1.89478
761,48.0250,53.0000, , ,1.0000, ,1.89292
762,48.0750,45.0000, , ,1.0000, ,1.89107
763,48.1250,52.0000, , ,1.0000, ,1.88922
764,48.1750,58.0000, , ,1.0000, ,1.88738
765,48.2250,69.0000, , ,1.0000, ,1.88554
766,48.2750,57.0000, , ,1.0000, ,1.88370
767,48.3250,68.0000, , ,1.0000, ,1.88187
768,48.3750,69.0000, , ,1.0000, ,1.88004
769,48.4250,74.0000, , ,1.0000, ,1.87822
770,48.4750,57.0000, , ,1.0000, ,1.87640
771,48.5250,59.0000, , ,1.0000, ,1.87458
772,48.5750,59.0000, , ,1.0000, ,1.87277
773,48.6250,36.0000, , ,1.0000, ,1.87096
774,48.6750,45.0000, , ,1.0000, ,1.86916
775,48.7250,32.0000, , ,1.0000, ,1.86735
776,48.7750,39.0000, , ,1.0000, ,1.86556
777,48.8250,34.0000, , ,1.0000, ,1.86376
778,48.8750,29.0000, , ,1.0000, ,1.86197
779,48.9250,23.0000, , ,1.0000, ,1.86019
780,48.9750,23.0000, , ,1.0000, ,1.85840
781,49.0250,21.0000, , ,1.0000, ,1.85663
782,49.0750,29.0000, , ,1.0000, ,1.85485
783,49.1250,24.0000, , ,1.0000, ,1.85308
784,49.1750,13.0000, , ,1.0000, ,1.85131
785,49.2250,19.0000, , ,1.0000, ,1.84955
786,49.2750,9.0000, , ,1.0000, ,1.84779
787,49.3250,15.0000, , ,1.0000, ,1.84603
788,49.3750,18.0000, , ,1.0000, ,1.84428
789,49.4250,16.0000, , ,1.0000, ,1.84253
790,49.4750,20.0000, , ,1.0000, ,1.84079
791,49.5250,19.0000, , ,1.0000, ,1.83905
792,49.5750,19.0000, , ,1.0000, ,1.83731
793,49.6250,17.0000, , ,1.0000, ,1.83557
794,49.6750,16.0000, , ,1.0000, ,1.83384
795,49.7250,17.0000, , ,1.0000, ,1.83212
796,49.7750,21.0000, , ,1.0000, ,1.83039
797,49.8250,9.0000, , ,1.0000, ,1.82867
798,49.8750,11.0000, , ,1.0000, ,1.82696
799,49.9250,14.0000, , ,1.0000, ,1.82525
800,49.9750,9.0000, , ,1.0000, ,1.82354
801,50.0250,7.0000, , ,1.0000, ,1.82183
802,50.0750,5.0000, , ,1.0000, ,1.82013
803,50.1250,14.0000, , ,1.0000, ,1.81843
804,50.1750,12.0000, , ,1.0000, ,1.81674
805,50.2250,9.0000, , ,1.0000, ,1.81504
806,50.2750,6.0000, , ,1.0000, ,1.81336
807,50.3250,15.0000, , ,1.0000, ,1.81167
808,50.3750,10.0000, , ,1.0000, ,1.80999
809,50.4250,12.0000, , ,1.0000, ,1.80831
810,50.4750,12.0000, , ,1.0000, ,1.80664
811,50.5250,12.0000, , ,1.0000, ,1.80497
812,50.5750,5.0000, , ,1.0000, ,1.80330
813,50.6250,5.0000, , ,1.0000, ,1.80164
814,50.6750,8.0000, , ,1.0000, ,1.79998
815,50.7250,6.0000, , ,1.0000, ,1.79832
816,50.7750,7.0000, , ,1.0000, ,1.79667
817,50.8250,8.0000, , ,1.0000, ,1.79502
818,50.8750,7.0000, , ,1.0000, ,1.79337
819,50.9250,9.0000, , ,1.0000, ,1.79173
820,50.9750,5.0000, , ,1.0000, ,1.79009
821,51.0250,14.0000, , ,1.0000, ,1.78845
822,51.0750,10.0000, , ,1.0000, ,1.78681
823,51.1250,10.0000, , ,1.0000, ,1.78518
824,51.1750,9.0000, , ,1.0000, ,1.78356
825,51.2250,9.0000, , ,1.0000, ,1.78193
826,51.2750,5.0000, , ,1.0000, ,1.78031
827,51.3250,10.0000, , ,1.0000, ,1.77870
828,51.3750,11.0000, , ,1.0000, ,1.77708
829,51.4250,8.0000, , ,1.0000, ,1.77547
830,51.4750,14.0000, , ,1.0000, ,1.77387
831,51.5250,13.0000, , ,1.0000, ,1.77226
832,51.5750,8.0000, , ,1.0000, ,1.77066
833,51.6250,15.0000, , ,1.0000, ,1.76906
834,51.6750,9.0000, , ,1.0000, ,1.76747
835,51.7250,10.0000, , ,1.0000, ,1.76588
836,51.7750,12.0000, , ,1.0000, ,1.76429
837,51.8250,24.0000, , ,1.0000, ,1.76271
838,51.8750,20.0000, , ,1.0000, ,1.76112
839,51.9250,15.0000, , ,1.0000, ,1.75955
840,51.9750,17.0000, , ,1.0000, ,1.75797
841,52.0250,23.0000, , ,1.0000, ,1.75640
842,52.0750,18.0000, , ,1.0000, ,1.75483
843,52.1250,28.0000, , ,1.0000, ,1.75326
844,52.1750,33.0000, , ,1.0000, ,1.75170
845,52.2250,32.0000, , ,1.0000, ,1.75014
846,52.2750,54.0000, , ,1.0000, ,1.74859
847,52.3250,61.0000, , ,1.0000, ,1.74703
848,52.3750,76.0000, , ,1.0000, ,1.74548
849,52.4250,115.0000, , ,1.0000, ,1.74394
850,52.4750,118.0000, , ,1.0000, ,1.74239
851,52.5250,201.0000, , ,1.0000, ,1.74085
852,52.5750,256.0000, , ,1.0000, ,1.73931
853,52.6250,189.0000, , ,1.0000, ,1.73778
854,52.6750,179.0000, , ,1.0000, ,1.73625
855,52.7250,167.0000, , ,1.0000, ,1.73472
856,52.7750,107.0000, , ,1.0000, ,1.73319
857,52.8250,86.0000, , ,1.0000, ,1.73167
858,52.8750,62.0000, , ,1.0000, ,1.73015
859,52.9250,52.0000, , ,1.0000, ,1.72863
860,52.9750,43.0000, , ,1.0000, ,1.72712
861,53.0250,28.0000, , ,1.0000, ,1.72561
862,53.0750,29.0000, , ,1.0000, ,1.72410
863,53.1250,17.0000, , ,1.0000, ,1.72259
864,53.1750,21.0000, , ,1.0000, ,1.72109
865,53.2250,22.0000, , ,1.0000, ,1.71959
866,53.2750,16.0000, , ,1.0000, ,1.71810
867,53.3250,12.0000, , ,1.0000, ,1.71660
868,53.3750,10.0000, , ,1.0000, ,1.71511
869,53.4250,13.0000, , ,1.0000, ,1.71363
870,53.4750,15.0000, , ,1.0000, ,1.71214
871,53.5250,7.0000, , ,1.0000, ,1.71066
872,53.5750,4.0000, , ,1.0000, ,1.70918
873,53.6250,9.0000, , ,1.0000, ,1.70771
874,53.6750,8.0000, , ,1.0000, ,1.70623
875,53.7250,13.0000, , ,1.0000, ,1.70476
876,53.7750,14.0000, , ,1.0000, ,1.70330
877,53.8250,13.0000, , ,1.0000, ,1.70183
878,53.8750,4.0000, , ,1.0000, ,1.70037
879,53.9250,6.0000, , ,1.0000, ,1.69891
880,53.9750,12.0000, , ,1.0000, ,1.69746
881,54.0250,4.0000, , ,1.0000, ,1.69600
882,54.0750,9.0000, , ,1.0000, ,1.69455
883,54.1250,7.0000, , ,1.0000, ,1.69311
884,54.1750,8.0000, , ,1.0000, ,1.69166
885,54.2250,11.0000, , ,1.0000, ,1.69022
886,54.2750,6.0000, , ,1.0000, ,1.68878
887,54.3250,9.0000, , ,1.0000, ,1.68734
888,54.3750,6.0000, , ,1.0000, ,1.68591
889,54.4250,7.0000, , ,1.0000, ,1.68448
890,54.4750,7.0000, , ,1.0000, ,1.68305
891,54.5250,10.0000, , ,1.0000, ,1.68163
892,54.5750,3.0000, , ,1.0000, ,1.68020
893,54.6250,5.0000, , ,1.0000, ,1.67878
894,54.6750,11.0000, , ,1.0000, ,1.67737
895,54.7250,7.0000, , ,1.0000, ,1.67595
896,54.7750,11.0000, , ,1.0000, ,1.67454
897,54.8250,7.0000, , ,1.0000, ,1.67313
898,54.8750,8.0000, , ,1.0000, ,1.67173
899,54.9250,8.0000, , ,1.0000, ,1.67032
900,54.9750,4.0000, , ,1.0000, ,1.66892
901,55.0250,9.0000, , ,1.0000, ,1.66752
902,55.0750,7.0000, , ,1.0000, ,1.66613
903,55.1250,10.0000, , ,1.0000, ,1.66473
904,55.1750,5.0000, , ,1.0000, ,1.66334
905,55.2250,7.0000, , ,1.0000, ,1.66196
906,55.2750,12.0000, , ,1.0000, ,1.66057
907,55.3250,9.0000, , ,1.0000, ,1.65919
908,55.3750,6.0000, , ,1.0000, ,1.65781
909,55.4250,9.0000, , ,1.0000, ,1.65643
910,55.4750,10.0000, , ,1.0000, ,1.65506
911,55.5250,8.0000, , ,1.0000, ,1.65369
912,55.5750,13.0000, , ,1.0000, ,1.65232
913,55.6250,4.0000, , ,1.0000, ,1.65095
914,55.6750,10.0000, , ,1.0000, ,1.64958
915,55.7250,12.0000, , ,1.0000, ,1.64822
916,55.7750,9.0000, , ,1.0000, ,1.64686
917,55.8250,8.0000, , ,1.0000, ,1.64551
918,55.8750,9.0000, , ,1.0000, ,1.64415
919,55.9250,7.0000, , ,1.0000, ,1.64280
920,55.9750,8.0000, , ,1.0000, ,1.64145
921,56.0250,20.0000, , ,1.0000, ,1.64011
922,56.0750,7.0000, , ,1.0000, ,1.63876
923,56.1250,11.0000, , ,1.0000, ,1.63742
924,56.1750,12.0000, , ,1.0000, ,1.63608
925,56.2250,10.0000, , ,1.0000, ,1.63475
926,56.2750,13.0000, , ,1.0000, ,1.63341
927,56.3250,13.0000, , ,1.0000, ,1.63208
928,56.3750,12.0000, , ,1.0000, ,1.63075
929,56.4250,9.0000, , ,1.0000, ,1.62942
930,56.4750,15.0000, , ,1.0000, ,1.62810
931,56.5250,13.0000, , ,1.0000, ,1.62678
932,56.5750,11.0000, , ,1.0000, ,1.62546
933,56.6250,15.0000, , ,1.0000, ,1.62414
934,56.6750,18.0000, , ,1.0000, ,1.62283
935,56.7250,16.0000, , ,1.0000, ,1.62152
936,56.7750,21.0000, , ,1.0000, ,1.62021
937,56.8250,29.0000, , ,1.0000, ,1.61890
938,56.8750,36.0000, , ,1.0000, ,1.61760
939,56.9250,32.0000, , ,1.0000, ,1.61629
940,56.9750,37.0000, , ,1.0000, ,1.61499
941,57.0250,46.0000, , ,1.0000, ,1.61370
942,57.0750,45.0000, , ,1.0000, ,1.61240
943,57.1250,69.0000, , ,1.0000, ,1.61111
944,57.1750,71.0000, , ,1.0000, ,1.60982
945,57.2250,87.0000, , ,1.0000, ,1.60853
946,57.2750,135.0000, , ,1.0000, ,1.60725
947,57.3250,132.0000, , ,1.0000, ,1.60596
948,57.3750,184.0000, , ,1.0000, ,1.60468
949,57.4250,283.0000, , ,1.0000, ,1.60340
950,57.4750,352.0000, , ,1.0000, ,1.60213
951,57.5250,457.0000, , ,1.0000, ,1.60085
952,57.5750,393.0000, , ,1.0000, ,1.59958
953,57.6250,340.0000, , ,1.0000, ,1.59831
954,57.6750,313.0000, , ,1.0000, ,1.59705
955,57.7250,261.0000, , ,1.0000, ,1.59578
956,57.7750,155.0000, , ,1.0000, ,1.59452
957,57.8250,117.0000, , ,1.0000, ,1.59326
958,57.8750,89.0000, , ,1.0000, ,1.59200
959,57.9250,74.0000, , ,1.0000, ,1.59075
960,57.9750,52.0000, , ,1.0000, ,1.58949
961,58.0250,60.0000, , ,1.0000, ,1.58824
962,58.0750,33.0000, , ,1.0000, ,1.58700
963,58.1250,30.0000, , ,1.0000, ,1.58575
964,58.1750,28.0000, , ,1.0000, ,1.58451
965,58.2250,19.0000, , ,1.0000, ,1.58326
966,58.2750,12.0000, , ,1.0000, ,1.58202
967,58.3250,16.0000, , ,1.0000, ,1.58079
968,58.3750,17.0000, , ,1.0000, ,1.57955
969,58.4250,25.0000, , ,1.0000, ,1.57832
970,58.4750,24.0000, , ,1.0000, ,1.57709
971,58.5250,13.0000, , ,1.0000, ,1.57586
972,58.5750,8.0000, , ,1.0000, ,1.57463
973,58.6250,17.0000, , ,1.0000, ,1.57341
974,58.6750,21.0000, , ,1.0000, ,1.57219
975,58.7250,8.0000, , ,1.0000, ,1.57097
976,58.7750,20.0000, , ,1.0000, ,1.56975
977,58.8250,17.0000, , ,1.0000, ,1.56854
978,58.8750,12.0000, , ,1.0000, ,1.56732
979,58.9250,14.0000, , ,1.0000, ,1.56611
980,58.9750,17.0000, , ,1.0000, ,1.56491
981,59.0250,13.0000, , ,1.0000, ,1.56370
982,59.0750,11.0000, , ,1.0000, ,1.56249
983,59.1250,9.0000, , ,1.0000, ,1.56129
984,59.1750,16.0000, , ,1.0000, ,1.56009
985,59.2250,10.0000, , ,1.0000, ,1.55889
986,59.2750,14.0000, , ,1.0000, ,1.55770
987,59.3250,9.0000, , ,1.0000, ,1.55651
988,59.3750,11.0000, , ,1.0000, ,1.55531
989,59.4250,8.0000, , ,1.0000, ,1.55412
990,59.4750,17.0000, , ,1.0000, ,1.55294
991,59.5250,8.0000, , ,1.0000, ,1.55175
992,59.5750,15.0000, , ,1.0000, ,1.55057
993,59.6250,7.0000, , ,1.0000, ,1.54939
994,59.6750,17.0000, , ,1.0000, ,1.54821
995,59.7250,15.0000, , ,1.0000, ,1.54703
996,59.7750,24.0000, , ,1.0000, ,1.54586
997,59.8250,13.0000, , ,1.0000, ,1.54469
998,59.8750,18.0000, , ,1.0000, ,1.54352
999,59.9250,16.0000, , ,1.0000, ,1.54235
1000,59.9750,14.0000, , ,1.0000, ,1.54118
1001,60.0250,19.0000, , ,1.0000, ,1.54002
1002,60.0750,6.0000, , ,1.0000, ,1.53885
1003,60.1250,11.0000, , ,1.0000, ,1.53769
1004,60.1750,14.0000, , ,1.0000, ,1.53654
1005,60.2250,11.0000, , ,1.0000, ,1.53538
1006,60.2750,8.0000, , ,1.0000, ,1.53423
1007,60.3250,12.0000, , ,1.0000, ,1.53307
1008,60.3750,15.0000, , ,1.0000, ,1.53192
1009,60.4250,5.0000, , ,1.0000, ,1.53078
1010,60.4750,7.0000, , ,1.0000, ,1.52963
1011,60.5250,9.0000, , ,1.0000, ,1.52849
1012,60.5750,11.0000, , ,1.0000, ,1.52734
1013,60.6250,5.0000, , ,1.0000, ,1.52620
1014,60.6750,9.0000, , ,1.0000, ,1.52506
1015,60.7250,12.0000, , ,1.0000, ,1.52393
1016,60.7750,10.0000, , ,1.0000, ,1.52279
1017,60.8250,12.0000, , ,1.0000, ,1.52166
1018,60.8750,9.0000, , ,1.0000, ,1.52053
1019,60.9250,16.0000, , ,1.0000, ,1.51940
1020,60.9750,19.0000, , ,1.0000, ,1.51828
1021,61.0250,21.0000, , ,1.0000, ,1.51715
1022,61.0750,22.0000, , ,1.0000, ,1.51603
1023,61.1250,27.0000, , ,1.0000, ,1.51491
1024,61.1750,40.0000, , ,1.0000, ,1.51379
1025,61.2250,40.0000, , ,1.0000, ,1.51268
1026,61.2750,32.0000, , ,1.0000, ,1.51156
1027,61.3250,45.0000, , ,1.0000, ,1.51045
1028,61.3750,48.0000, , ,1.0000, ,1.50934
1029,61.4250,31.0000, , ,1.0000, ,1.50823
1030,61.4750,32.0000, , ,1.0000, ,1.50712
1031,61.5250,35.0000, , ,1.0000, ,1.50602
1032,61.5750,20.0000, , ,1.0000, ,1.50492
1033,61.6250,17.0000, , ,1.0000, ,1.50381
1034,61.6750,14.0000, , ,1.0000, ,1.50271
1035,61.7250,10.0000, , ,1.0000, ,1.50162
1036,61.7750,6.0000, , ,1.0000, ,1.50052
1037,61.8250,6.0000, , ,1.0000, ,1.49943
1038,61.8750,15.0000, , ,1.0000, ,1.49834
1039,61.9250,14.0000, , ,1.0000, ,1.49725
1040,61.9750,11.0000, , ,1.0000, ,1.49616
1041,62.0250,10.0000, , ,1.0000, ,1.49507
1042,62.0750,8.0000, , ,1.0000, ,1.49399
1043,62.1250,10.0000, , ,1.0000, ,1.49291
1044,62.1750,12.0000, , ,1.0000, ,1.49183
1045,62.2250,5.0000, , ,1.0000, ,1.49075
1046,62.2750,10.0000, , ,1.0000, ,1.48967
1047,62.3250,9.0000, , ,1.0000, ,1.48860
1048,62.3750,7.0000, , ,1.0000, ,1.48752
1049,62.4250,11.0000, , ,1.0000, ,1.48645
1050,62.4750,8.0000, , ,1.0000, ,1.48538
1051,62.5250,11.0000, , ,1.0000, ,1.48431
1052,62.5750,13.0000, , ,1.0000, ,1.48325
1053,62.6250,10.0000, , ,1.0000, ,1.48218
1054,62.6750,12.0000, , ,1.0000, ,1.48112
1055,62.7250,6.0000, , ,1.0000, ,1.48006
1056,62.7750,11.0000, , ,1.0000, ,1.47900
1057,62.8250,11.0000, , ,1.0000, ,1.47795
1058,62.8750,9.0000, , ,1.0000, ,1.47689
1059,62.9250,13.0000, , ,1.0000, ,1.47584
1060,62.9750,7.0000, , ,1.0000, ,1.47479
1061,63.0250,9.0000, , ,1.0000, ,1.47374
1062,63.0750,12.0000, , ,1.0000, ,1.47269
1063,63.1250,10.0000, , ,1.0000, ,1.47164
1064,63.1750,9.0000, , ,1.0000, ,1.47060
1065,63.2250,9.0000, , ,1.0000, ,1.46955
1066,63.2750,7.0000, , ,1.0000, ,1.46851
1067,63.3250,8.0000, , ,1.0000, ,1.46747
1068,63.3750,7.0000, , ,1.0000, ,1.46644
1069,63.4250,10.0000, , ,1.0000, ,1.46540
1070,63.4750,11.0000, , ,1.0000, ,1.46437
1071,63.5250,9.0000, , ,1.0000, ,1.46334
1072,63.5750,6.0000, , ,1.0000, ,1.46231
1073,63.6250,8.0000, , ,1.0000, ,1.46128
1074,63.6750,10.0000, , ,1.0000, ,1.46025
1075,63.7250,14.0000, , ,1.0000, ,1.45922
1076,63.7750,11.0000, , ,1.0000, ,1.45820
1077,63.8250,13.0000, , ,1.0000, ,1.45718
1078,63.8750,15.0000, , ,1.0000, ,1.45616
1079,63.9250,7.0000, , ,1.0000, ,1.45514
1080,63.9750,11.0000, , ,1.0000, ,1.45412
1081,64.0250,12.0000, , ,1.0000, ,1.45311
1082,64.0750,8.0000, , ,1.0000, ,1.45210
1083,64.1250,15.0000, , ,1.0000, ,1.45108
1084,64.1750,9.0000, , ,1.0000, ,1.45007
1085,64.2250,13.0000, , ,1.0000, ,1.44907
1086,64.2750,10.0000, , ,1.0000, ,1.44806
1087,64.3250,6.0000, , ,1.0000, ,1.44705
1088,64.3750,10.0000, , ,1.0000, ,1.44605
1089,64.4250,11.0000, , ,1.0000, ,1.44505
1090,64.4750,14.0000, , ,1.0000, ,1.44405
1091,64.5250,12.0000, , ,1.0000, ,1.44305
1092,64.5750,10.0000, , ,1.0000, ,1.44205
1093,64.6250,13.0000, , ,1.0000, ,1.44106
1094,64.6750,8.0000, , ,1.0000, ,1.44007
1095,64.7250,17.0000, , ,1.0000, ,1.43907
1096,64.7750,18.0000, , ,1.0000, ,1.43808
1097,64.8250,18.0000, , ,1.0000, ,1.43710
1098,64.8750,13.0000, , ,1.0000, ,1.43611
1099,64.9250,18.0000, , ,1.0000, ,1.43512
1100,64.9750,12.0000, , ,1.0000, ,1.43414
1101,65.0250,14.0000, , ,1.0000, ,1.43316
1102,65.0750,19.0000, , ,1.0000, ,1.43218
1103,65.1250,12.0000, , ,1.0000, ,1.43120
1104,65.1750,9.0000, , ,1.0000, ,1.43022
1105,65.2250,18.0000, , ,1.0000, ,1.42925
1106,65.2750,12.0000, , ,1.0000, ,1.42827
1107,65.3250,21.0000, , ,1.0000, ,1.42730
1108,65.3750,19.0000, , ,1.0000, ,1.42633
1109,65.4250,20.0000, , ,1.0000, ,1.42536
1110,65.4750,14.0000, , ,1.0000, ,1.42439
1111,65.5250,19.0000, , ,1.0000, ,1.42343
1112,65.5750,17.0000, , ,1.0000, ,1.42246
1113,65.6250,15.0000, , ,1.0000, ,1.42150
1114,65.6750,18.0000, , ,1.0000, ,1.42054
1115,65.7250,18.0000, , ,1.0000, ,1.41958
1116,65.7750,20.0000, , ,1.0000, ,1.41862
1117,65.8250,26.0000, , ,1.0000, ,1.41766
1118,65.8750,18.0000, , ,1.0000, ,1.41671
1119,65.9250,32.0000, , ,1.0000, ,1.41576
1120,65.9750,35.0000, , ,1.0000, ,1.41480
1121,66.0250,39.0000, , ,1.0000, ,1.41385
1122,66.0750,37.0000, , ,1.0000, ,1.41291
1123,66.1250,34.0000, , ,1.0000, ,1.41196
1124,66.1750,34.0000, , ,1.0000, ,1.41101
1125,66.2250,43.0000, , ,1.0000, ,1.41007
1126,66.2750,56.0000, , ,1.0000, ,1.40913
1127,66.3250,63.0000, , ,1.0000, ,1.40819
1128,66.3750,77.0000, , ,1.0000, ,1.40725
1129,66.4250,99.0000, , ,1.0000, ,1.40631
1130,66.4750,130.0000, , ,1.0000, ,1.40537
1131,66.5250,176.0000, , ,1.0000, ,1.40444
1132,66.5750,181.0000, , ,1.0000, ,1.40350
1133,66.6250,138.0000, , ,1.0000, ,1.40257
1134,66.6750,97.0000, , ,1.0000, ,1.40164
1135,66.7250,115.0000, , ,1.0000, ,1.40071
1136,66.7750,98.0000, , ,1.0000, ,1.39978
1137,66.8250,81.0000, , ,1.0000, ,1.39886
1138,66.8750,64.0000, , ,1.0000, ,1.39793
1139,66.9250,55.0000, , ,1.0000, ,1.39701
1140,66.9750,36.0000, , ,1.0000, ,1.39609
1141,67.0250,34.0000, , ,1.0000, ,1.39517
1142,67.0750,36.0000, , ,1.0000, ,1.39425
1143,67.1250,37.0000, , ,1.0000, ,1.39333
1144,67.1750,28.0000, , ,1.0000, ,1.39242
1145,67.2250,22.0000, , ,1.0000, ,1.39150
1146,67.2750,20.0000, , ,1.0000, ,1.39059
1147,67.3250,18.0000, , ,1.0000, ,1.38968
1148,67.3750,28.0000, , ,1.0000, ,1.38877
1149,67.4250,18.0000, , ,1.0000, ,1.38786
1150,67.4750,32.0000, , ,1.0000, ,1.38695
1151,67.5250,20.0000, , ,1.0000, ,1.38605
1152,67.5750,23.0000, , ,1.0000, ,1.38515
1153,67.6250,26.0000, , ,1.0000, ,1.38424
1154,67.6750,30.0000, , ,1.0000, ,1.38334
1155,67.7250,29.0000, , ,1.0000, ,1.38244
1156,67.7750,42.0000, , ,1.0000, ,1.38154
1157,67.8250,45.0000, , ,1.0000, ,1.38065
1158,67.8750,56.0000, , ,1.0000, ,1.37975
1159,67.9250,63.0000, , ,1.0000, ,1.37886
1160,67.9750,80.0000, , ,1.0000, ,1.37797
1161,68.0250,101.0000, , ,1.0000, ,1.37707
1162,68.0750,108.0000, , ,1.0000, ,1.37618
1163,68.1250,154.0000, , ,1.0000, ,1.37530
1164,68.1750,190.0000, , ,1.0000, ,1.37441
1165,68.2250,231.0000, , ,1.0000, ,1.37352
1166,68.2750,252.0000, , ,1.0000, ,1.37264
1167,68.3250,180.0000, , ,1.0000, ,1.37176
1168,68.3750,190.0000, , ,1.0000, ,1.37088
1169,68.4250,162.0000, , ,1.0000, ,1.37000
1170,68.4750,138.0000, , ,1.0000, ,1.36912
1171,68.5250,76.0000, , ,1.0000, ,1.36824
1172,68.5750,58.0000, , ,1.0000, ,1.36736
1173,68.6250,61.0000, , ,1.0000, ,1.36649
1174,68.6750,58.0000, , ,1.0000, ,1.36562
1175,68.7250,45.0000, , ,1.0000, ,1.36475
1176,68.7750,36.0000, , ,1.0000, ,1.36388
1177,68.8250,35.0000, , ,1.0000, ,1.36301
1178,68.8750,20.0000, , ,1.0000, ,1.36214
1179,68.9250,26.0000, , ,1.0000, ,1.36127
1180,68.9750,16.0000, , ,1.0000, ,1.36041
1181,69.0250,15.0000, , ,1.0000, ,1.35954
1182,69.0750,17.0000, , ,1.0000, ,1.35868
1183,69.1250,13.0000, , ,1.0000, ,1.35782
1184,69.1750,11.0000, , ,1.0000, ,1.35696
1185,69.2250,12.0000, , ,1.0000, ,1.35610
1186,69.2750,14.0000, , ,1.0000, ,1.35525
1187,69.3250,11.0000, , ,1.0000, ,1.35439
1188,69.3750,9.0000, , ,1.0000, ,1.35354
1189,69.4250,10.0000, , ,1.0000, ,1.35269
1190,69.4750,15.0000, , ,1.0000, ,1.35183
1191,69.5250,10.0000, , ,1.0000, ,1.35098
1192,69.5750,11.0000, , ,1.0000, ,1.35014
1193,69.6250,9.0000, , ,1.0000, ,1.34929
1194,69.6750,10.0000, , ,1.0000, ,1.34844
1195,69.7250,12.0000, , ,1.0000, ,1.34760
1196,69.7750,18.0000, , ,1.0000, ,1.34675
1197,69.8250,17.0000, , ,1.0000, ,1.34591
1198,69.8750,12.0000, , ,1.0000, ,1.34507
1199,69.9250,8.0000, , ,1.0000, ,1.34423
1200,69.9750,10.0000, , ,1.0000, ,1.34339
1201,70.0250,12.0000, , ,1.0000, ,1.34256
1202,70.0750,13.0000, , ,1.0000, ,1.34172
1203,70.1250,10.0000, , ,1.0000, ,1.34089
1204,70.1750,7.0000, , ,1.0000, ,1.34005
1205,70.2250,7.0000, , ,1.0000, ,1.33922
1206,70.2750,12.0000, , ,1.0000, ,1.33839
1207,70.3250,7.0000, , ,1.0000, ,1.33756
1208,70.3750,12.0000, , ,1.0000, ,1.33674
1209,70.4250,10.0000, , ,1.0000, ,1.33591
1210,70.4750,11.0000, , ,1.0000, ,1.33508
1211,70.5250,4.0000, , ,1.0000, ,1.33426
1212,70.5750,10.0000, , ,1.0000, ,1.33344
1213,70.6250,9.0000, , ,1.0000, ,1.33262
1214,70.6750,10.0000, , ,1.0000, ,1.33179
1215,70.7250,6.0000, , ,1.0000, ,1.33098
1216,70.7750,2.0000, , ,1.0000, ,1.33016
1217,70.8250,11.0000, , ,1.0000, ,1.32934
1218,70.8750,6.0000, , ,1.0000, ,1.32853
1219,70.9250,8.0000, , ,1.0000, ,1.32771
1220,70.9750,4.0000, , ,1.0000, ,1.32690
1221,71.0250,5.0000, , ,1.0000, ,1.32609
1222,71.0750,5.0000, , ,1.0000, ,1.32528
1223,71.1250,8.0000, , ,1.0000, ,1.32447
1224,71.1750,3.0000, , ,1.0000, ,1.32366
1225,71.2250,5.0000, , ,1.0000, ,1.32286
1226,71.2750,2.0000, , ,1.0000, ,1.32205
1227,71.3250,4.0000, , ,1.0000, ,1.32125
1228,71.3750,5.0000, , ,1.0000, ,1.32044
1229,71.4250,6.0000, , ,1.0000, ,1.31964
1230,71.4750,9.0000, , ,1.0000, ,1.31884
1231,71.5250,4.0000, , ,1.0000, ,1.31804
1232,71.5750,10.0000, , ,1.0000, ,1.31724
1233,71.6250,14.0000, , ,1.0000, ,1.31645
1234,71.6750,5.0000, , ,1.0000, ,1.31565
1235,71.7250,3.0000, , ,1.0000, ,1.31486
1236,71.7750,6.0000, , ,1.0000, ,1.31406
1237,71.8250,7.0000, , ,1.0000, ,1.31327
1238,71.8750,12.0000, , ,1.0000, ,1.31248
1239,71.9250,12.0000, , ,1.0000, ,1.31169
1240,71.9750,10.0000, , ,1.0000, ,1.31090
1241,72.0250,6.0000, , ,1.0000, ,1.31012
1242,72.0750,8.0000, , ,1.0000, ,1.30933
1243,72.1250,13.0000, , ,1.0000, ,1.30855
1244,72.1750,10.0000, , ,1.0000, ,1.30776
1245,72.2250,9.0000, , ,1.0000, ,1.30698
1246,72.2750,8.0000, , ,1.0000, ,1.30620
1247,72.3250,10.0000, , ,1.0000, ,1.30542
1248,72.3750,12.0000, , ,1.0000, ,1.30464
1249,72.4250,6.0000, , ,1.0000, ,1.30386
1250,72.4750,11.0000, , ,1.0000, ,1.30309
1251,72.5250,10.0000, , ,1.0000, ,1.30231
1252,72.5750,12.0000, , ,1.0000, ,1.30154
1253,72.6250,11.0000, , ,1.0000, ,1.30077
1254,72.6750,11.0000, , ,1.0000, ,1.29999
1255,72.7250,1.0000, , ,1.0000, ,1.29922
1256,72.7750,11.0000, , ,1.0000, ,1.29845
1257,72.8250,15.0000, , ,1.0000, ,1.29769
1258,72.8750,10.0000, , ,1.0000, ,1.29692
1259,72.9250,12.0000, , ,1.0000, ,1.29615
1260,72.9750,16.0000, , ,1.0000, ,1.29539
1261,73.0250,15.0000, , ,1.0000, ,1.29462
1262,73.0750,20.0000, , ,1.0000, ,1.29386
1263,73.1250,14.0000, , ,1.0000, ,1.29310
1264,73.1750,17.0000, , ,1.0000, ,1.29234
1265,73.2250,14.0000, , ,1.0000, ,1.29158
1266,73.2750,13.0000, , ,1.0000, ,1.29082
1267,73.3250,17.0000, , ,1.0000, ,1.29007
1268,73.3750,19.0000, , ,1.0000, ,1.28931
1269,73.4250,15.0000, , ,1.0000, ,1.28856
1270,73.4750,14.0000, , ,1.0000, ,1.28780
1271,73.5250,12.0000, , ,1.0000, ,1.28705
1272,73.5750,15.0000, , ,1.0000, ,1.28630
1273,73.6250,10.0000, , ,1.0000, ,1.28555
1274,73.6750,13.0000, , ,1.0000, ,1.28480
1275,73.7250,10.0000, , ,1.0000, ,1.28405
1276,73.7750,14.0000, , ,1.0000, ,1.28331
1277,73.8250,22.0000, , ,1.0000, ,1.28256
1278,73.8750,11.0000, , ,1.0000, ,1.28182
1279,73.9250,14.0000, , ,1.0000, ,1.28107
1280,73.9750,9.0000, , ,1.0000, ,1.28033
1281,74.0250,15.0000, , ,1.0000, ,1.27959
1282,74.0750,9.0000, , ,1.0000, ,1.27885
1283,74.1250,17.0000, , ,1.0000, ,1.27811
1284,74.1750,15.0000, , ,1.0000, ,1.27737
1285,74.2250,10.0000, , ,1.0000, ,1.27664
1286,74.2750,12.0000, , ,1.0000, ,1.27590
1287,74.3250,23.0000, , ,1.0000, ,1.27517
1288,74.3750,13.0000, , ,1.0000, ,1.27443
1289,74.4250,8.0000, , ,1.0000, ,1.27370
1290,74.4750,20.0000, , ,1.0000, ,1.27297
1291,74.5250,15.0000, , ,1.0000, ,1.27224
1292,74.5750,10.0000, , ,1.0000, ,1.27151
1293,74.6250,15.0000, , ,1.0000, ,1.27078
1294,74.6750,13.0000, , ,1.0000, ,1.27005
1295,74.7250,11.0000, , ,1.0000, ,1.26933
1296,74.7750,7.0000, , ,1.0000, ,1.26860
1297,74.8250,12.0000, , ,1.0000, ,1.26788
1298,74.8750,16.0000, , ,1.0000, ,1.26716
1299,74.9250,12.0000, , ,1.0000, ,1.26643
1300,74.9750,14.0000, , ,1.0000, ,1.26571
1301,75.0250,15.0000, , ,1.0000, ,1.26499
1302,75.0750,9.0000, , ,1.0000, ,1.26428
1303,75.1250,12.0000, , ,1.0000, ,1.26356
1304,75.1750,14.0000, , ,1.0000, ,1.26284
1305,75.2250,17.0000, , ,1.0000, ,1.26213
1306,75.2750,10.0000, , ,1.0000, ,1.26141
1307,75.3250,14.0000, , ,1.0000, ,1.26070
1308,75.3750,11.0000, , ,1.0000, ,1.25999
1309,75.4250,15.0000, , ,1.0000, ,1.25928
1310,75.4750,15.0000, , ,1.0000, ,1.25857
1311,75.5250,7.0000, , ,1.0000, ,1.25786
1312,75.5750,16.0000, , ,1.0000, ,1.25715
1313,75.6250,16.0000, , ,1.0000, ,1.25644
1314,75.6750,19.0000, , ,1.0000, ,1.25574
1315,75.7250,24.0000, , ,1.0000, ,1.25503
1316,75.7750,22.0000, , ,1.0000, ,1.25433
1317,75.8250,18.0000, , ,1.0000, ,1.25362
1318,75.8750,26.0000, , ,1.0000, ,1.25292
1319,75.9250,19.0000, , ,1.0000, ,1.25222
1320,75.9750,16.0000, , ,1.0000, ,1.25152
1321,76.0250,18.0000, , ,1.0000, ,1.25082
1322,76.0750,14.0000, , ,1.0000, ,1.25013
1323,76.1250,22.0000, , ,1.0000, ,1.24943
1324,76.1750,20.0000, , ,1.0000, ,1.24873
1325,76.2250,21.0000, , ,1.0000, ,1.24804
1326,76.2750,18.0000, , ,1.0000, ,1.24735
1327,76.3250,21.0000, , ,1.0000, ,1.24665
1328,76.3750,20.0000, , ,1.0000, ,1.24596
1329,76.4250,35.0000, , ,1.0000, ,1.24527
1330,76.4750,24.0000, , ,1.0000, ,1.24458
1331,76.5250,37.0000, , ,1.0000, ,1.24389
1332,76.5750,28.0000, , ,1.0000, ,1.24320
1333,76.6250,31.0000, , ,1.0000, ,1.24252
1334,76.6750,42.0000, , ,1.0000, ,1.24183
1335,76.7250,39.0000, , ,1.0000, ,1.24115
1336,76.7750,52.0000, , ,1.0000, ,1.24046
1337,76.8250,61.0000, , ,1.0000, ,1.23978
1338,76.8750,76.0000, , ,1.0000, ,1.23910
1339,76.9250,75.0000, , ,1.0000, ,1.23842
1340,76.9750,68.0000, , ,1.0000, ,1.23774
1341,77.0250,63.0000, , ,1.0000, ,1.23706
1342,77.0750,67.0000, , ,1.0000, ,1.23638
1343,77.1250,74.0000, , ,1.0000, ,1.23571
1344,77.1750,63.0000, , ,1.0000, ,1.23503
1345,77.2250,65.0000, , ,1.0000, ,1.23435
1346,77.2750,53.0000, , ,1.0000, ,1.23368
1347,77.3250,67.0000, , ,1.0000, ,1.23301
1348,77.3750,37.0000, , ,1.0000, ,1.23234
1349,77.4250,40.0000, , ,1.0000, ,1.23166
1350,77.4750,51.0000, , ,1.0000, ,1.23099
1351,77.5250,40.0000, , ,1.0000, ,1.23033
1352,77.5750,25.0000, , ,1.0000, ,1.22966
1353,77.6250,15.0000, , ,1.0000, ,1.22899
1354,77.6750,15.0000, , ,1.0000, ,1.22832
1355,77.7250,19.0000, , ,1.0000, ,1.22766
1356,77.7750,14.0000, , ,1.0000, ,1.22699
1357,77.8250,14.0000, , ,1.0000, ,1.22633
1358,77.8750,11.0000, , ,1.0000, ,1.22567
1359,77.9250,11.0000, , ,1.0000, ,1.22501
1360,77.9750,12.0000, , ,1.0000, ,1.22435
1361,78.0250,11.0000, , ,1.0000, ,1.22369
1362,78.0750,8.0000, , ,1.0000, ,1.22303
1363,78.1250,9.0000, , ,1.0000, ,1.22237
1364,78.1750,7.0000, , ,1.0000, ,1.22171
1365,78.2250,11.0000, , ,1.0000, ,1.22106
1366,78.2750,5.0000, , ,1.0000, ,1.22040
1367,78.3250,7.0000, , ,1.0000, ,1.21975
1368,78.3750,5.0000, , ,1.0000, ,1.21910
1369,78.4250,10.0000, , ,1.0000, ,1.21845
1370,78.4750,16.0000, , ,1.0000, ,1.21779
1371,78.5250,9.0000, , ,1.0000, ,1.21714
1372,78.5750,9.0000, , ,1.0000, ,1.21649
1373,78.6250,6.0000, , ,1.0000, ,1.21585
1374,78.6750,6.0000, , ,1.0000, ,1.21520
1375,78.7250,4.0000, , ,1.0000, ,1.21455
1376,78.7750,6.0000, , ,1.0000, ,1.21391
1377,78.8250,4.0000, , ,1.0000, ,1.21326
1378,78.8750,8.0000, , ,1.0000, ,1.21262
1379,78.9250,3.0000, , ,1.0000, ,1.21198
1380,78.9750,8.0000, , ,1.0000, ,1.21133
1381,79.0250,8.0000, , ,1.0000, ,1.21069
1382,79.0750,10.0000, , ,1.0000, ,1.21005
1383,79.1250,10.0000, , ,1.0000, ,1.20941
1384,79.1750,7.0000, , ,1.0000, ,1.20878
1385,79.2250,9.0000, , ,1.0000, ,1.20814
1386,79.2750,6.0000, , ,1.0000, ,1.20750
1387,79.3250,6.0000, , ,1.0000, ,1.20687
1388,79.3750,6.0000, , ,1.0000, ,1.20623
1389,79.4250,6.0000, , ,1.0000, ,1.20560
1390,79.4750,6.0000, , ,1.0000, ,1.20496
1391,79.5250,8.0000, , ,1.0000, ,1.20433
1392,79.5750,3.0000, , ,1.0000, ,1.20370
1393,79.6250,5.0000, , ,1.0000, ,1.20307
1394,79.6750,5.0000, , ,1.0000, ,1.20244
1395,79.7250,8.0000, , ,1.0000, ,1.20181
1396,79.7750,7.0000, , ,1.0000, ,1.20119
1397,79.8250,5.0000, , ,1.0000, ,1.20056
1398,79.8750,7.0000, , ,1.0000, ,1.19993
1399,79.9250,3.0000, , ,1.0000, ,1.19931
1400,79.9750,4.0000, , ,1.0000, ,1.19868
1401,80.0250,8.0000, , ,1.0000, ,1.19806
1402,80.0750,5.0000, , ,1.0000, ,1.19744
1403,80.1250,9.0000, , ,1.0000, ,1.19682
1404,80.1750,7.0000, , ,1.0000, ,1.19620
1405,80.2250,12.0000, , ,1.0000, ,1.19558
1406,80.2750,10.0000, , ,1.0000, ,1.19496
1407,80.3250,7.0000, , ,1.0000, ,1.19434
1408,80.3750,12.0000, , ,1.0000, ,1.19372
1409,80.4250,11.0000, , ,1.0000, ,1.19311
1410,80.4750,20.0000, , ,1.0000, ,1.19249
1411,80.5250,18.0000, , ,1.0000, ,1.19188
1412,80.5750,25.0000, , ,1.0000, ,1.19126
1413,80.6250,19.0000, , ,1.0000, ,1.19065
1414,80.6750,23.0000, , ,1.0000, ,1.19004
1415,80.7250,28.0000, , ,1.0000, ,1.18943
1416,80.7750,26.0000, , ,1.0000, ,1.18882
1417,80.8250,22.0000, , ,1.0000, ,1.18821
1418,80.8750,13.0000, , ,1.0000, ,1.18760
1419,80.9250,21.0000, , ,1.0000, ,1.18699
1420,80.9750,19.0000, , ,1.0000, ,1.18639
1421,81.0250,22.0000, , ,1.0000, ,1.18578
1422,81.0750,12.0000, , ,1.0000, ,1.18517
1423,81.1250,7.0000, , ,1.0000, ,1.18457
1424,81.1750,13.0000, , ,1.0000, ,1.18397
1425,81.2250,13.0000, , ,1.0000, ,1.18336
1426,81.2750,7.0000, , ,1.0000, ,1.18276
1427,81.3250,9.0000, , ,1.0000, ,1.18216
1428,81.3750,11.0000, , ,1.0000, ,1.18156
1429,81.4250,8.0000, , ,1.0000, ,1.18096
1430,81.4750,0.0000, , ,1.0000, ,1.18036
1431,81.5250,5.0000, , ,1.0000, ,1.17977
1432,81.5750,6.0000, , ,1.0000, ,1.17917
1433,81.6250,6.0000, , ,1.0000, ,1.17857
1434,81.6750,4.0000, , ,1.0000, ,1.17798
1435,81.7250,6.0000, , ,1.0000, ,1.17738
1436,81.7750,8.0000, , ,1.0000, ,1.17679
1437,81.8250,5.0000, , ,1.0000, ,1.17620
1438,81.8750,7.0000, , ,1.0000, ,1.17561
1439,81.9250,5.0000, , ,1.0000, ,1.17502
1440,81.9750,6.0000, , ,1.0000, ,1.17443
1441,82.0250,2.0000, , ,1.0000, ,1.17384
1442,82.0750,7.0000, , ,1.0000, ,1.17325
1443,82.1250,10.0000, , ,1.0000, ,1.17266
1444,82.1750,6.0000, , ,1.0000, ,1.17207
1445,82.2250,3.0000, , ,1.0000, ,1.17149
1446,82.2750,5.0000, , ,1.0000, ,1.17090
1447,82.3250,5.0000, , ,1.0000, ,1.17032
1448,82.3750,5.0000, , ,1.0000, ,1.16973
1449,82.4250,3.0000, , ,1.0000, ,1.16915
1450,82.4750,5.0000, , ,1.0000, ,1.16857
1451,82.5250,6.0000, , ,1.0000, ,1.16799
1452,82.5750,12.0000, , ,1.0000, ,1.16741
1453,82.6250,2.0000, , ,1.0000, ,1.16683
1454,82.6750,4.0000, , ,1.0000, ,1.16625
1455,82.7250,2.0000, , ,1.0000, ,1.16567
1456,82.7750,10.0000, , ,1.0000, ,1.16509
1457,82.8250,9.0000, , ,1.0000, ,1.16452
1458,82.8750,7.0000, , ,1.0000, ,1.16394
1459,82.9250,6.0000, , ,1.0000, ,1.16337
1460,82.9750,9.0000, , ,1.0000, ,1.16279
1461,83.0250,3.0000, , ,1.0000, ,1.16222
1462,83.0750,9.0000, , ,1.0000, ,1.16165
1463,83.1250,12.0000, , ,1.0000, ,1.16107
1464,83.1750,8.0000, , ,1.0000, ,1.16050
1465,83.2250,7.0000, , ,1.0000, ,1.15993
1466,83.2750,8.0000, , ,1.0000, ,1.15936
1467,83.3250,9.0000, , ,1.0000, ,1.15879
1468,83.3750,11.0000, , ,1.0000, ,1.15823
1469,83.4250,8.0000, , ,1.0000, ,1.15766
1470,83.4750,12.0000, , ,1.0000, ,1.15709
1471,83.5250,10.0000, , ,1.0000, ,1.15653
1472,83.5750,5.0000, , ,1.0000, ,1.15596
1473,83.6250,9.0000, , ,1.0000, ,1.15540
1474,83.6750,7.0000, , ,1.0000, ,1.15484
1475,83.7250,14.0000, , ,1.0000, ,1.15427
1476,83.7750,9.0000, , ,1.0000, ,1.15371
1477,83.8250,9.0000, , ,1.0000, ,1.15315
1478,83.8750,11.0000, , ,1.0000, ,1.15259
1479,83.9250,8.0000, , ,1.0000, ,1.15203
1480,83.9750,18.0000, , ,1.0000, ,1.15147
1481,84.0250,11.0000, , ,1.0000, ,1.15091
1482,84.0750,15.0000, , ,1.0000, ,1.15036
1483,84.1250,12.0000, , ,1.0000, ,1.14980
1484,84.1750,16.0000, , ,1.0000, ,1.14925
1485,84.2250,15.0000, , ,1.0000, ,1.14869
1486,84.2750,16.0000, , ,1.0000, ,1.14814
1487,84.3250,30.0000, , ,1.0000, ,1.14758
1488,84.3750,32.0000, , ,1.0000, ,1.14703
1489,84.4250,26.0000, , ,1.0000, ,1.14648
1490,84.4750,19.0000, , ,1.0000, ,1.14593
1491,84.5250,12.0000, , ,1.0000, ,1.14538
1492,84.5750,17.0000, , ,1.0000, ,1.14483
1493,84.6250,18.0000, , ,1.0000, ,1.14428
1494,84.6750,19.0000, , ,1.0000, ,1.14373
1495,84.7250,18.0000, , ,1.0000, ,1.14318
1496,84.7750,7.0000, , ,1.0000, ,1.14264
1497,84.8250,11.0000, , ,1.0000, ,1.14209
1498,84.8750,9.0000, , ,1.0000, ,1.14155
1499,84.9250,13.0000, , ,1.0000, ,1.14100
1500,84.9750,10.0000, , ,1.0000, ,1.14046
1501,85.0250,13.0000, , ,1.0000, ,1.13992
1502,85.0750,5.0000, , ,1.0000, ,1.13937
1503,85.1250,12.0000, , ,1.0000, ,1.13883
1504,85.1750,6.0000, , ,1.0000, ,1.13829
1505,85.2250,11.0000, , ,1.0000, ,1.13775
1506,85.2750,9.0000, , ,1.0000, ,1.13721
1507,85.3250,17.0000, , ,1.0000, ,1.13667
1508,85.3750,10.0000, , ,1.0000, ,1.13614
1509,85.4250,6.0000, , ,1.0000, ,1.13560
1510,85.4750,9.0000, , ,1.0000, ,1.13506
1511,85.5250,8.0000, , ,1.0000, ,1.13453
1512,85.5750,11.0000, , ,1.0000, ,1.13399
1513,85.6250,4.0000, , ,1.0000, ,1.13346
1514,85.6750,15.0000, , ,1.0000, ,1.13292
1515,85.7250,9.0000, , ,1.0000, ,1.13239
1516,85.7750,3.0000, , ,1.0000, ,1.13186
1517,85.8250,14.0000, , ,1.0000, ,1.13133
1518,85.8750,12.0000, , ,1.0000, ,1.13080
1519,85.9250,9.0000, , ,1.0000, ,1.13027
1520,85.9750,10.0000, , ,1.0000, ,1.12974
1521,86.0250,7.0000, , ,1.0000, ,1.12921
1522,86.0750,6.0000, , ,1.0000, ,1.12868
1523,86.1250,10.0000, , ,1.0000, ,1.12815
1524,86.1750,15.0000, , ,1.0000, ,1.12763
1525,86.2250,13.0000, , ,1.0000, ,1.12710
1526,86.2750,15.0000, , ,1.0000, ,1.12658
1527,86.3250,17.0000, , ,1.0000, ,1.12605
1528,86.3750,20.0000, , ,1.0000, ,1.12553
1529,86.4250,26.0000, , ,1.0000, ,1.12501
1530,86.4750,24.0000, , ,1.0000, ,1.12448
1531,86.5250,22.0000, , ,1.0000, ,1.12396
1532,86.5750,22.0000, , ,1.0000, ,1.12344
1533,86.6250,21.0000, , ,1.0000, ,1.12292
1534,86.6750,19.0000, , ,1.0000, ,1.12240
1535,86.7250,18.0000, , ,1.0000, ,1.12188
1536,86.7750,11.0000, , ,1.0000, ,1.12137
1537,86.8250,17.0000, , ,1.0000, ,1.12085
1538,86.8750,16.0000, , ,1.0000, ,1.12033
1539,86.9250,12.0000, , ,1.0000, ,1.11982
1540,86.9750,8.0000, , ,1.0000, ,1.11930
1541,87.0250,8.0000, , ,1.0000, ,1.11879
1542,87.0750,12.0000, , ,1.0000, ,1.11827
1543,87.1250,12.0000, , ,1.0000, ,1.11776
1544,87.1750,1.0000, , ,1.0000, ,1.11725
1545,87.2250,5.0000, , ,1.0000, ,1.11674
1546,87.2750,5.0000, , ,1.0000, ,1.11622
1547,87.3250,7.0000, , ,1.0000, ,1.11571
1548,87.3750,6.0000, , ,1.0000, ,1.11520
1549,87.4250,6.0000, , ,1.0000, ,1.11470
1550,87.4750,8.0000, , ,1.0000, ,1.11419
1551,87.5250,4.0000, , ,1.0000, ,1.11368
1552,87.5750,8.0000, , ,1.0000, ,1.11317
1553,87.6250,3.0000, , ,1.0000, ,1.11267
1554,87.6750,8.0000, , ,1.0000, ,1.11216
1555,87.7250,9.0000, , ,1.0000, ,1.11165
1556,87.7750,4.0000, , ,1.0000, ,1.11115
1557,87.8250,7.0000, , ,1.0000, ,1.11065
1558,87.8750,7.0000, , ,1.0000, ,1.11014
1559,87.9250,8.0000, , ,1.0000, ,1.10964
1560,87.9750,7.0000, , ,1.0000, ,1.10914
1561,88.0250,8.0000, , ,1.0000, ,1.10864
1562,88.0750,2.0000, , ,1.0000, ,1.10814
1563,88.1250,4.0000, , ,1.0000, ,1.10764
1564,88.1750,3.0000, , ,1.0000, ,1.10714
1565,88.2250,9.0000, , ,1.0000, ,1.10664
1566,88.2750,7.0000, , ,1.0000, ,1.10614
1567,88.3250,5.0000, , ,1.0000, ,1.10565
1568,88.3750,3.0000, , ,1.0000, ,1.10515
1569,88.4250,6.0000, , ,1.0000, ,1.10465
1570,88.4750,6.0000, , ,1.0000, ,1.10416
1571,88.5250,11.0000, , ,1.0000, ,1.10366
1572,88.5750,10.0000, , ,1.0000, ,1.10317
1573,88.6250,9.0000, , ,1.0000, ,1.10268
1574,88.6750,17.0000, , ,1.0000, ,1.10219
1575,88.7250,10.0000, , ,1.0000, ,1.10169
1576,88.7750,9.0000, , ,1.0000, ,1.10120
1577,88.8250,17.0000, , ,1.0000, ,1.10071
1578,88.8750,14.0000, , ,1.0000, ,1.10022
1579,88.9250,22.0000, , ,1.0000, ,1.09973
1580,88.9750,18.0000, , ,1.0000, ,1.09924
1581,89.0250,32.0000, , ,1.0000, ,1.09876
1582,89.0750,20.0000, , ,1.0000, ,1.09827
1583,89.1250,19.0000, , ,1.0000, ,1.09778
1584,89.1750,26.0000, , ,1.0000, ,1.09730
1585,89.2250,21.0000, , ,1.0000, ,1.09681
1586,89.2750,18.0000, , ,1.0000, ,1.09633
1587,89.3250,16.0000, , ,1.0000, ,1.09584
1588,89.3750,14.0000, , ,1.0000, ,1.09536
1589,89.4250,12.0000, , ,1.0000, ,1.09487
1590,89.4750,6.0000, , ,1.0000, ,1.09439
1591,89.5250,8.0000, , ,1.0000, ,1.09391
1592,89.5750,5.0000, , ,1.0000, ,1.09343
1593,89.6250,5.0000, , ,1.0000, ,1.09295
1594,89.6750,10.0000, , ,1.0000, ,1.09247
1595,89.7250,8.0000, , ,1.0000, ,1.09199
1596,89.7750,6.0000, , ,1.0000, ,1.09151
1597,89.8250,3.0000, , ,1.0000, ,1.09103
1598,89.8750,9.0000, , ,1.0000, ,1.09056
1599,89.9250,9.0000, , ,1.0000, ,1.09008
1600,89.9750,12.0000, , ,1.0000, ,1.08961
1601,90.0250,4.0000, , ,1.0000, ,1.08913
1602,90.0750,6.0000, , ,1.0000, ,1.08866
1603,90.1250,8.0000, , ,1.0000, ,1.08818
1604,90.1750,11.0000, , ,1.0000, ,1.08771
1605,90.2250,7.0000, , ,1.0000, ,1.08723
1606,90.2750,9.0000, , ,1.0000, ,1.08676
1607,90.3250,6.0000, , ,1.0000, ,1.08629
1608,90.3750,10.0000, , ,1.0000, ,1.08582
1609,90.4250,11.0000, , ,1.0000, ,1.08535
1610,90.4750,9.0000, , ,1.0000, ,1.08488
1611,90.5250,12.0000, , ,1.0000, ,1.08441
1612,90.5750,11.0000, , ,1.0000, ,1.08394
1613,90.6250,6.0000, , ,1.0000, ,1.08347
1614,90.6750,8.0000, , ,1.0000, ,1.08301
1615,90.7250,16.0000, , ,1.0000, ,1.08254
1616,90.7750,15.0000, , ,1.0000, ,1.08207
1617,90.8250,14.0000, , ,1.0000, ,1.08161
1618,90.8750,10.0000, , ,1.0000, ,1.08114
1619,90.9250,17.0000, , ,1.0000, ,1.08068
1620,90.9750,20.0000, , ,1.0000, ,1.08022
1621,91.0250,21.0000, , ,1.0000, ,1.07975
1622,91.0750,20.0000, , ,1.0000, ,1.07929
1623,91.1250,26.0000, , ,1.0000, ,1.07883
1624,91.1750,26.0000, , ,1.0000, ,1.07837
1625,91.2250,38.0000, , ,1.0000, ,1.07791
1626,91.2750,30.0000, , ,1.0000, ,1.07745
1627,91.3250,26.0000, , ,1.0000, ,1.07699
1628,91.3750,20.0000, , ,1.0000, ,1.07653
1629,91.4250,20.0000, , ,1.0000, ,1.07607
1630,91.4750,14.0000, , ,1.0000, ,1.07561
1631,91.5250,20.0000, , ,1.0000, ,1.07515
1632,91.5750,19.0000, , ,1.0000, ,1.07470
1633,91.6250,18.0000, , ,1.0000, ,1.07424
1634,91.6750,9.0000, , ,1.0000, ,1.07379
1635,91.7250,10.0000, , ,1.0000, ,1.07333
1636,91.7750,7.0000, , ,1.0000, ,1.07288
1637,91.8250,5.0000, , ,1.0000, ,1.07242
1638,91.8750,11.0000, , ,1.0000, ,1.07197
1639,91.9250,8.0000, , ,1.0000, ,1.07152
1640,91.9750,9.0000, , ,1.0000, ,1.07107
1641,92.0250,3.0000, , ,1.0000, ,1.07062
1642,92.0750,6.0000, , ,1.0000, ,1.07017
1643,92.1250,5.0000, , ,1.0000, ,1.06972
1644,92.1750,4.0000, , ,1.0000, ,1.06927
1645,92.2250,10.0000, , ,1.0000, ,1.06882
1646,92.2750,4.0000, , ,1.0000, ,1.06837
1647,92.3250,4.0000, , ,1.0000, ,1.06792
1648,92.3750,6.0000, , ,1.0000, ,1.06747
1649,92.4250,8.0000, , ,1.0000, ,1.06703
1650,92.4750,3.0000, , ,1.0000, ,1.06658
1651,92.5250,5.0000, , ,1.0000, ,1.06614
1652,92.5750,6.0000, , ,1.0000, ,1.06569
1653,92.6250,3.0000, , ,1.0000, ,1.06525
1654,92.6750,5.0000, , ,1.0000, ,1.06480
1655,92.7250,7.0000, , ,1.0000, ,1.06436
1656,92.7750,5.0000, , ,1.0000, ,1.06392
1657,92.8250,2.0000, , ,1.0000, ,1.06348
1658,92.8750,10.0000, , ,1.0000, ,1.06303
1659,92.9250,6.0000, , ,1.0000, ,1.06259
1660,92.9750,4.0000, , ,1.0000, ,1.06215
1661,93.0250,4.0000, , ,1.0000, ,1.06171
1662,93.0750,3.0000, , ,1.0000, ,1.06127
1663,93.1250,1.0000, , ,1.0000, ,1.06084
1664,93.1750,5.0000, , ,1.0000, ,1.06040
1665,93.2250,4.0000, , ,1.0000, ,1.05996
1666,93.2750,7.0000, , ,1.0000, ,1.05952
1667,93.3250,4.0000, , ,1.0000, ,1.05909
1668,93.3750,11.0000, , ,1.0000, ,1.05865
1669,93.4250,3.0000, , ,1.0000, ,1.05822
1670,93.4750,5.0000, , ,1.0000, ,1.05778
1671,93.5250,4.0000, , ,1.0000, ,1.05735
1672,93.5750,9.0000, , ,1.0000, ,1.05691
1673,93.6250,14.0000, , ,1.0000, ,1.05648
1674,93.6750,9.0000, , ,1.0000, ,1.05605
1675,93.7250,4.0000, , ,1.0000, ,1.05562
1676,93.7750,8.0000, , ,1.0000, ,1.05519
1677,93.8250,5.0000, , ,1.0000, ,1.05475
1678,93.8750,3.0000, , ,1.0000, ,1.05432
1679,93.9250,7.0000, , ,1.0000, ,1.05389
1680,93.9750,3.0000, , ,1.0000, ,1.05347
1681,94.0250,5.0000, , ,1.0000, ,1.05304
1682,94.0750,8.0000, , ,1.0000, ,1.05261
1683,94.1250,10.0000, , ,1.0000, ,1.05218
1684,94.1750,8.0000, , ,1.0000, ,1.05175
1685,94.2250,8.0000, , ,1.0000, ,1.05133
1686,94.2750,12.0000, , ,1.0000, ,1.05090
1687,94.3250,6.0000, , ,1.0000, ,1.05048
1688,94.3750,9.0000, , ,1.0000, ,1.05005
1689,94.4250,7.0000, , ,1.0000, ,1.04963
1690,94.4750,15.0000, , ,1.0000, ,1.04920
1691,94.5250,7.0000, , ,1.0000, ,1.04878
1692,94.5750,10.0000, , ,1.0000, ,1.04836
1693,94.6250,11.0000, , ,1.0000, ,1.04794
1694,94.6750,12.0000, , ,1.0000, ,1.04752
1695,94.7250,14.0000, , ,1.0000, ,1.04709
1696,94.7750,12.0000, , ,1.0000, ,1.04667
1697,94.8250,9.0000, , ,1.0000, ,1.04625
1698,94.8750,21.0000, , ,1.0000, ,1.04583
1699,94.9250,20.0000, , ,1.0000, ,1.04542
1700,94.9750,21.0000, , ,1.0000, ,1.04500
1701,95.0250,30.0000, , ,1.0000, ,1.04458
1702,95.0750,23.0000, , ,1.0000, ,1.04416
1703,95.1250,35.0000, , ,1.0000, ,1.04375
1704,95.1750,54.0000, , ,1.0000, ,1.04333
1705,95.2250,49.0000, , ,1.0000, ,1.04291
1706,95.2750,66.0000, , ,1.0000, ,1.04250
1707,95.3250,42.0000, , ,1.0000, ,1.04208
1708,95.3750,43.0000, , ,1.0000, ,1.04167
1709,95.4250,32.0000, , ,1.0000, ,1.04126
1710,95.4750,29.0000, , ,1.0000, ,1.04084
1711,95.5250,30.0000, , ,1.0000, ,1.04043
1712,95.5750,34.0000, , ,1.0000, ,1.04002
1713,95.6250,36.0000, , ,1.0000, ,1.03961
1714,95.6750,33.0000, , ,1.0000, ,1.03920
1715,95.7250,26.0000, , ,1.0000, ,1.03879
1716,95.7750,10.0000, , ,1.0000, ,1.03838
1717,95.8250,10.0000, , ,1.0000, ,1.03797
1718,95.8750,13.0000, , ,1.0000, ,1.03756
1719,95.9250,10.0000, , ,1.0000, ,1.03715
1720,95.9750,15.0000, , ,1.0000, ,1.03674
1721,96.0250,13.0000, , ,1.0000, ,1.03634
1722,96.0750,10.0000, , ,1.0000, ,1.03593
1723,96.1250,14.0000, , ,1.0000, ,1.03552
1724,96.1750,9.0000, , ,1.0000, ,1.03512
1725,96.2250,6.0000, , ,1.0000, ,1.03471
1726,96.2750,7.0000, , ,1.0000, ,1.03431
1727,96.3250,6.0000, , ,1.0000, ,1.03390
1728,96.3750,10.0000, , ,1.0000, ,1.03350
1729,96.4250,7.0000, , ,1.0000, ,1.03310
1730,96.4750,9.0000, , ,1.0000, ,1.03269
1731,96.5250,5.0000, , ,1.0000, ,1.03229
1732,96.5750,7.0000, , ,1.0000, ,1.03189
1733,96.6250,2.0000, , ,1.0000, ,1.03149
1734,96.6750,5.0000, , ,1.0000, ,1.03109
1735,96.7250,3.0000, , ,1.0000, ,1.03069
1736,96.7750,5.0000, , ,1.0000, ,1.03029
1737,96.8250,7.0000, , ,1.0000, ,1.02989
1738,96.8750,5.0000, , ,1.0000, ,1.02949
1739,96.9250,6.0000, , ,1.0000, ,1.02909
1740,96.9750,5.0000, , ,1.0000, ,1.02870
1741,97.0250,5.0000, , ,1.0000, ,1.02830
1742,97.0750,8.0000, , ,1.0000, ,1.02790
1743,97.1250,7.0000, , ,1.0000, ,1.02751
1744,97.1750,8.0000, , ,1.0000, ,1.02711
1745,97.2250,12.0000, , ,1.0000, ,1.02672
1746,97.2750,4.0000, , ,1.0000, ,1.02632
1747,97.3250,3.0000, , ,1.0000, ,1.02593
1748,97.3750,8.0000, , ,1.0000, ,1.02553
1749,97.4250,11.0000, , ,1.0000, ,1.02514
1750,97.4750,8.0000, , ,1.0000, ,1.02475
1751,97.5250,7.0000, , ,1.0000, ,1.02436
1752,97.5750,3.0000, , ,1.0000, ,1.02396
1753,97.6250,6.0000, , ,1.0000, ,1.02357
1754,97.6750,10.0000, , ,1.0000, ,1.02318
1755,97.7250,7.0000, , ,1.0000, ,1.02279
1756,97.7750,6.0000, , ,1.0000, ,1.02240
1757,97.8250,3.0000, , ,1.0000, ,1.02201
1758,97.8750,9.0000, , ,1.0000, ,1.02163
1759,97.9250,5.0000, , ,1.0000, ,1.02124
1760,97.9750,7.0000, , ,1.0000, ,1.02085
1761,98.0250,14.0000, , ,1.0000, ,1.02046
1762,98.0750,13.0000, , ,1.0000, ,1.02008
1763,98.1250,9.0000, , ,1.0000, ,1.01969
1764,98.1750,7.0000, , ,1.0000, ,1.01930
1765,98.2250,9.0000, , ,1.0000, ,1.01892
1766,98.2750,18.0000, , ,1.0000, ,1.01853
1767,98.3250,12.0000, , ,1.0000, ,1.01815
1768,98.3750,17.0000, , ,1.0000, ,1.01777
1769,98.4250,9.0000, , ,1.0000, ,1.01738
1770,98.4750,13.0000, , ,1.0000, ,1.01700
1771,98.5250,13.0000, , ,1.0000, ,1.01662
1772,98.5750,15.0000, , ,1.0000, ,1.01624
1773,98.6250,6.0000, , ,1.0000, ,1.01585
1774,98.6750,12.0000, , ,1.0000, ,1.01547
1775,98.7250,15.0000, , ,1.0000, ,1.01509
1776,98.7750,11.0000, , ,1.0000, ,1.01471
1777,98.8250,8.0000, , ,1.0000, ,1.01433
1778,98.8750,11.0000, , ,1.0000, ,1.01396
1779,98.9250,14.0000, , ,1.0000, ,1.01358
1780,98.9750,7.0000, , ,1.0000, ,1.01320
1781,99.0250,11.0000, , ,1.0000, ,1.01282
1782,99.0750,9.0000, , ,1.0000, ,1.01244
1783,99.1250,11.0000, , ,1.0000, ,1.01207
1784,99.1750,7.0000, , ,1.0000, ,1.01169
1785,99.2250,9.0000, , ,1.0000, ,1.01132
1786,99.2750,5.0000, , ,1.0000, ,1.01094
1787,99.3250,8.0000, , ,1.0000, ,1.01057
1788,99.3750,9.0000, , ,1.0000, ,1.01019
1789,99.4250,7.0000, , ,1.0000, ,1.00982
1790,99.4750,7.0000, , ,1.0000, ,1.00945
1791,99.5250,4.0000, , ,1.0000, ,1.00907
1792,99.5750,10.0000, , ,1.0000, ,1.00870
1793,99.6250,3.0000, , ,1.0000, ,1.00833
1794,99.6750,6.0000, , ,1.0000, ,1.00796
1795,99.7250,6.0000, , ,1.0000, ,1.00759
1796,99.7750,8.0000, , ,1.0000, ,1.00722
1797,99.8250,10.0000, , ,1.0000, ,1.00685
1798,99.8750,5.0000, , ,1.0000, ,1.00648
1799,99.9250,7.0000, , ,1.0000, ,1.00611
1800,99.9750,8.0000, , ,1.0000, ,1.00574
